# OpenSignals Text File Format. Version 1
# {"98:D3:91:FD:55:F3": {"position": 0, "device": "bitalino_rev", "device name": "98:D3:91:FD:55:F3", "device connection": "BTH98:D3:91:FD:55:F3", "sampling rate": 1000, "resolution": [4, 1, 1, 1, 1, 10], "firmware version": 1281, "comments": "", "keywords": "", "mode": 0, "sync interval": 2, "date": "2021-9-22", "time": "12:14:39.520", "channels": [1], "sensor": ["EMGBITREV"], "label": ["A1"], "column": ["nSeq", "I1", "I2", "O1", "O2", "A1"], "special": [{}], "digital IO": [0, 0, 1, 1]}}
# EndOfHeader
0	0	0	0	0	509	
1	0	0	0	0	509	
2	0	0	0	0	503	
3	0	0	0	0	502	
4	0	0	0	0	497	
5	0	0	0	0	503	
6	0	0	0	0	499	
7	0	0	0	0	496	
8	0	0	0	0	500	
9	0	0	0	0	509	
10	0	0	0	0	514	
11	0	0	0	0	518	
12	0	0	0	0	521	
13	0	0	0	0	524	
14	0	0	0	0	528	
15	0	0	0	0	523	
0	0	0	0	0	516	
1	0	0	0	0	512	
2	0	0	0	0	511	
3	0	0	0	0	510	
4	0	0	0	0	510	
5	0	0	0	0	506	
6	0	0	0	0	504	
7	0	0	0	0	501	
8	0	0	0	0	500	
9	0	0	0	0	499	
10	0	0	0	0	500	
11	0	0	0	0	504	
12	0	0	0	0	510	
13	0	0	0	0	510	
14	0	0	0	0	511	
15	0	0	0	0	516	
0	0	0	0	0	519	
1	0	0	0	0	522	
2	0	0	0	0	527	
3	0	0	0	0	529	
4	0	0	0	0	518	
5	0	0	0	0	516	
6	0	0	0	0	510	
7	0	0	0	0	514	
8	0	0	0	0	509	
9	0	0	0	0	506	
10	0	0	0	0	507	
11	0	0	0	0	496	
12	0	0	0	0	490	
13	0	0	0	0	496	
14	0	0	0	0	502	
15	0	0	0	0	506	
0	0	0	0	0	508	
1	0	0	0	0	515	
2	0	0	0	0	518	
3	0	0	0	0	519	
4	0	0	0	0	521	
5	0	0	0	0	515	
6	0	0	0	0	519	
7	0	0	0	0	522	
8	0	0	0	0	519	
9	0	0	0	0	518	
10	0	0	0	0	516	
11	0	0	0	0	510	
12	0	0	0	0	507	
13	0	0	0	0	507	
14	0	0	0	0	499	
15	0	0	0	0	499	
0	0	0	0	0	497	
1	0	0	0	0	496	
2	0	0	0	0	500	
3	0	0	0	0	507	
4	0	0	0	0	510	
5	0	0	0	0	513	
6	0	0	0	0	515	
7	0	0	0	0	517	
8	0	0	0	0	519	
9	0	0	0	0	523	
10	0	0	0	0	524	
11	0	0	0	0	523	
12	0	0	0	0	523	
13	0	0	0	0	518	
14	0	0	0	0	511	
15	0	0	0	0	506	
0	0	0	0	0	506	
1	0	0	0	0	507	
2	0	0	0	0	504	
3	0	0	0	0	503	
4	0	0	0	0	497	
5	0	0	0	0	501	
6	0	0	0	0	504	
7	0	0	0	0	503	
8	0	0	0	0	506	
9	0	0	0	0	513	
10	0	0	0	0	514	
11	0	0	0	0	516	
12	0	0	0	0	518	
13	0	0	0	0	526	
14	0	0	0	0	524	
15	0	0	0	0	521	
0	0	0	0	0	523	
1	0	0	0	0	515	
2	0	0	0	0	508	
3	0	0	0	0	506	
4	0	0	0	0	504	
5	0	0	0	0	506	
6	0	0	0	0	502	
7	0	0	0	0	499	
8	0	0	0	0	494	
9	0	0	0	0	499	
10	0	0	0	0	500	
11	0	0	0	0	504	
12	0	0	0	0	509	
13	0	0	0	0	515	
14	0	0	0	0	518	
15	0	0	0	0	522	
0	0	0	0	0	523	
1	0	0	0	0	526	
2	0	0	0	0	527	
3	0	0	0	0	525	
4	0	0	0	0	522	
5	0	0	0	0	516	
6	0	0	0	0	511	
7	0	0	0	0	512	
8	0	0	0	0	507	
9	0	0	0	0	503	
10	0	0	0	0	497	
11	0	0	0	0	492	
12	0	0	0	0	494	
13	0	0	0	0	501	
14	0	0	0	0	501	
15	0	0	0	0	504	
0	0	0	0	0	509	
1	0	0	0	0	512	
2	0	0	0	0	511	
3	0	0	0	0	515	
4	0	0	0	0	522	
5	0	0	0	0	526	
6	0	0	0	0	531	
7	0	0	0	0	524	
8	0	0	0	0	516	
9	0	0	0	0	517	
10	0	0	0	0	513	
11	0	0	0	0	505	
12	0	0	0	0	509	
13	0	0	0	0	501	
14	0	0	0	0	504	
15	0	0	0	0	501	
0	0	0	0	0	501	
1	0	0	0	0	500	
2	0	0	0	0	500	
3	0	0	0	0	506	
4	0	0	0	0	510	
5	0	0	0	0	515	
6	0	0	0	0	520	
7	0	0	0	0	519	
8	0	0	0	0	517	
9	0	0	0	0	519	
10	0	0	0	0	518	
11	0	0	0	0	519	
12	0	0	0	0	515	
13	0	0	0	0	515	
14	0	0	0	0	512	
15	0	0	0	0	511	
0	0	0	0	0	507	
1	0	0	0	0	505	
2	0	0	0	0	504	
3	0	0	0	0	498	
4	0	0	0	0	497	
5	0	0	0	0	498	
6	0	0	0	0	502	
7	0	0	0	0	508	
8	0	0	0	0	512	
9	0	0	0	0	505	
10	0	0	0	0	509	
11	0	0	0	0	516	
12	0	0	0	0	519	
13	0	0	0	0	521	
14	0	0	0	0	521	
15	0	0	0	0	524	
0	0	0	0	0	523	
1	0	0	0	0	519	
2	0	0	0	0	514	
3	0	0	0	0	511	
4	0	0	0	0	505	
5	0	0	0	0	503	
6	0	0	0	0	502	
7	0	0	0	0	498	
8	0	0	0	0	498	
9	0	0	0	0	502	
10	0	0	0	0	503	
11	0	0	0	0	503	
12	0	0	0	0	510	
13	0	0	0	0	517	
14	0	0	0	0	515	
15	0	0	0	0	519	
0	0	0	0	0	512	
1	0	0	0	0	518	
2	0	0	0	0	526	
3	0	0	0	0	523	
4	0	0	0	0	517	
5	0	0	0	0	518	
6	0	0	0	0	518	
7	0	0	0	0	510	
8	0	0	0	0	505	
9	0	0	0	0	502	
10	0	0	0	0	506	
11	0	0	0	0	502	
12	0	0	0	0	497	
13	0	0	0	0	497	
14	0	0	0	0	503	
15	0	0	0	0	504	
0	0	0	0	0	510	
1	0	0	0	0	513	
2	0	0	0	0	515	
3	0	0	0	0	518	
4	0	0	0	0	517	
5	0	0	0	0	526	
6	0	0	0	0	526	
7	0	0	0	0	523	
8	0	0	0	0	520	
9	0	0	0	0	515	
10	0	0	0	0	512	
11	0	0	0	0	512	
12	0	0	0	0	509	
13	0	0	0	0	505	
14	0	0	0	0	503	
15	0	0	0	0	497	
0	0	0	0	0	498	
1	0	0	0	0	502	
2	0	0	0	0	495	
3	0	0	0	0	499	
4	0	0	0	0	505	
5	0	0	0	0	507	
6	0	0	0	0	511	
7	0	0	0	0	518	
8	0	0	0	0	523	
9	0	0	0	0	524	
10	0	0	0	0	523	
11	0	0	0	0	522	
12	0	0	0	0	519	
13	0	0	0	0	517	
14	0	0	0	0	512	
15	0	0	0	0	511	
0	0	0	0	0	507	
1	0	0	0	0	510	
2	0	0	0	0	507	
3	0	0	0	0	500	
4	0	0	0	0	497	
5	0	0	0	0	501	
6	0	0	0	0	502	
7	0	0	0	0	504	
8	0	0	0	0	510	
9	0	0	0	0	516	
10	0	0	0	0	516	
11	0	0	0	0	516	
12	0	0	0	0	511	
13	0	0	0	0	516	
14	0	0	0	0	522	
15	0	0	0	0	523	
0	0	0	0	0	518	
1	0	0	0	0	520	
2	0	0	0	0	517	
3	0	0	0	0	512	
4	0	0	0	0	508	
5	0	0	0	0	498	
6	0	0	0	0	500	
7	0	0	0	0	501	
8	0	0	0	0	499	
9	0	0	0	0	501	
10	0	0	0	0	507	
11	0	0	0	0	507	
12	0	0	0	0	511	
13	0	0	0	0	510	
14	0	0	0	0	508	
15	0	0	0	0	510	
0	0	0	0	0	515	
1	0	0	0	0	526	
2	0	0	0	0	528	
3	0	0	0	0	524	
4	0	0	0	0	519	
5	0	0	0	0	515	
6	0	0	0	0	510	
7	0	0	0	0	507	
8	0	0	0	0	509	
9	0	0	0	0	508	
10	0	0	0	0	507	
11	0	0	0	0	501	
12	0	0	0	0	497	
13	0	0	0	0	495	
14	0	0	0	0	499	
15	0	0	0	0	500	
0	0	0	0	0	501	
1	0	0	0	0	508	
2	0	0	0	0	517	
3	0	0	0	0	518	
4	0	0	0	0	518	
5	0	0	0	0	524	
6	0	0	0	0	525	
7	0	0	0	0	524	
8	0	0	0	0	519	
9	0	0	0	0	517	
10	0	0	0	0	514	
11	0	0	0	0	513	
12	0	0	0	0	509	
13	0	0	0	0	507	
14	0	0	0	0	504	
15	0	0	0	0	499	
0	0	0	0	0	498	
1	0	0	0	0	498	
2	0	0	0	0	500	
3	0	0	0	0	506	
4	0	0	0	0	507	
5	0	0	0	0	512	
6	0	0	0	0	513	
7	0	0	0	0	518	
8	0	0	0	0	518	
9	0	0	0	0	521	
10	0	0	0	0	526	
11	0	0	0	0	526	
12	0	0	0	0	522	
13	0	0	0	0	519	
14	0	0	0	0	512	
15	0	0	0	0	508	
0	0	0	0	0	505	
1	0	0	0	0	503	
2	0	0	0	0	502	
3	0	0	0	0	498	
4	0	0	0	0	497	
5	0	0	0	0	498	
6	0	0	0	0	498	
7	0	0	0	0	499	
8	0	0	0	0	504	
9	0	0	0	0	512	
10	0	0	0	0	516	
11	0	0	0	0	519	
12	0	0	0	0	520	
13	0	0	0	0	523	
14	0	0	0	0	529	
15	0	0	0	0	527	
0	0	0	0	0	522	
1	0	0	0	0	517	
2	0	0	0	0	513	
3	0	0	0	0	513	
4	0	0	0	0	511	
5	0	0	0	0	505	
6	0	0	0	0	502	
7	0	0	0	0	502	
8	0	0	0	0	489	
9	0	0	0	0	492	
10	0	0	0	0	498	
11	0	0	0	0	503	
12	0	0	0	0	508	
13	0	0	0	0	513	
14	0	0	0	0	518	
15	0	0	0	0	517	
0	0	0	0	0	515	
1	0	0	0	0	520	
2	0	0	0	0	526	
3	0	0	0	0	523	
4	0	0	0	0	522	
5	0	0	0	0	519	
6	0	0	0	0	516	
7	0	0	0	0	511	
8	0	0	0	0	510	
9	0	0	0	0	510	
10	0	0	0	0	507	
11	0	0	0	0	498	
12	0	0	0	0	492	
13	0	0	0	0	497	
14	0	0	0	0	501	
15	0	0	0	0	506	
0	0	0	0	0	509	
1	0	0	0	0	511	
2	0	0	0	0	512	
3	0	0	0	0	515	
4	0	0	0	0	518	
5	0	0	0	0	517	
6	0	0	0	0	521	
7	0	0	0	0	526	
8	0	0	0	0	523	
9	0	0	0	0	516	
10	0	0	0	0	514	
11	0	0	0	0	508	
12	0	0	0	0	508	
13	0	0	0	0	505	
14	0	0	0	0	503	
15	0	0	0	0	501	
0	0	0	0	0	500	
1	0	0	0	0	501	
2	0	0	0	0	499	
3	0	0	0	0	503	
4	0	0	0	0	505	
5	0	0	0	0	510	
6	0	0	0	0	514	
7	0	0	0	0	515	
8	0	0	0	0	518	
9	0	0	0	0	521	
10	0	0	0	0	524	
11	0	0	0	0	522	
12	0	0	0	0	521	
13	0	0	0	0	517	
14	0	0	0	0	513	
15	0	0	0	0	510	
0	0	0	0	0	507	
1	0	0	0	0	505	
2	0	0	0	0	502	
3	0	0	0	0	501	
4	0	0	0	0	499	
5	0	0	0	0	500	
6	0	0	0	0	503	
7	0	0	0	0	505	
8	0	0	0	0	508	
9	0	0	0	0	513	
10	0	0	0	0	517	
11	0	0	0	0	518	
12	0	0	0	0	515	
13	0	0	0	0	521	
14	0	0	0	0	524	
15	0	0	0	0	526	
0	0	0	0	0	517	
1	0	0	0	0	514	
2	0	0	0	0	511	
3	0	0	0	0	506	
4	0	0	0	0	501	
5	0	0	0	0	505	
6	0	0	0	0	501	
7	0	0	0	0	501	
8	0	0	0	0	497	
9	0	0	0	0	499	
10	0	0	0	0	505	
11	0	0	0	0	510	
12	0	0	0	0	513	
13	0	0	0	0	515	
14	0	0	0	0	515	
15	0	0	0	0	516	
0	0	0	0	0	519	
1	0	0	0	0	518	
2	0	0	0	0	523	
3	0	0	0	0	521	
4	0	0	0	0	518	
5	0	0	0	0	516	
6	0	0	0	0	517	
7	0	0	0	0	509	
8	0	0	0	0	508	
9	0	0	0	0	505	
10	0	0	0	0	504	
11	0	0	0	0	496	
12	0	0	0	0	497	
13	0	0	0	0	502	
14	0	0	0	0	504	
15	0	0	0	0	501	
0	0	0	0	0	505	
1	0	0	0	0	512	
2	0	0	0	0	515	
3	0	0	0	0	514	
4	0	0	0	0	519	
5	0	0	0	0	524	
6	0	0	0	0	525	
7	0	0	0	0	522	
8	0	0	0	0	521	
9	0	0	0	0	516	
10	0	0	0	0	514	
11	0	0	0	0	512	
12	0	0	0	0	508	
13	0	0	0	0	507	
14	0	0	0	0	505	
15	0	0	0	0	499	
0	0	0	0	0	493	
1	0	0	0	0	500	
2	0	0	0	0	501	
3	0	0	0	0	503	
4	0	0	0	0	510	
5	0	0	0	0	508	
6	0	0	0	0	515	
7	0	0	0	0	517	
8	0	0	0	0	519	
9	0	0	0	0	520	
10	0	0	0	0	520	
11	0	0	0	0	521	
12	0	0	0	0	518	
13	0	0	0	0	519	
14	0	0	0	0	518	
15	0	0	0	0	510	
0	0	0	0	0	508	
1	0	0	0	0	505	
2	0	0	0	0	505	
3	0	0	0	0	504	
4	0	0	0	0	500	
5	0	0	0	0	499	
6	0	0	0	0	502	
7	0	0	0	0	506	
8	0	0	0	0	508	
9	0	0	0	0	507	
10	0	0	0	0	511	
11	0	0	0	0	512	
12	0	0	0	0	518	
13	0	0	0	0	524	
14	0	0	0	0	526	
15	0	0	0	0	523	
0	0	0	0	0	520	
1	0	0	0	0	521	
2	0	0	0	0	513	
3	0	0	0	0	508	
4	0	0	0	0	508	
5	0	0	0	0	502	
6	0	0	0	0	501	
7	0	0	0	0	499	
8	0	0	0	0	496	
9	0	0	0	0	498	
10	0	0	0	0	502	
11	0	0	0	0	502	
12	0	0	0	0	508	
13	0	0	0	0	513	
14	0	0	0	0	514	
15	0	0	0	0	519	
0	0	0	0	0	519	
1	0	0	0	0	524	
2	0	0	0	0	525	
3	0	0	0	0	523	
4	0	0	0	0	522	
5	0	0	0	0	519	
6	0	0	0	0	515	
7	0	0	0	0	511	
8	0	0	0	0	508	
9	0	0	0	0	506	
10	0	0	0	0	500	
11	0	0	0	0	497	
12	0	0	0	0	497	
13	0	0	0	0	498	
14	0	0	0	0	504	
15	0	0	0	0	507	
0	0	0	0	0	511	
1	0	0	0	0	511	
2	0	0	0	0	512	
3	0	0	0	0	514	
4	0	0	0	0	515	
5	0	0	0	0	521	
6	0	0	0	0	526	
7	0	0	0	0	522	
8	0	0	0	0	514	
9	0	0	0	0	513	
10	0	0	0	0	512	
11	0	0	0	0	511	
12	0	0	0	0	507	
13	0	0	0	0	499	
14	0	0	0	0	503	
15	0	0	0	0	503	
0	0	0	0	0	500	
1	0	0	0	0	499	
2	0	0	0	0	505	
3	0	0	0	0	505	
4	0	0	0	0	508	
5	0	0	0	0	515	
6	0	0	0	0	515	
7	0	0	0	0	517	
8	0	0	0	0	519	
9	0	0	0	0	524	
10	0	0	0	0	526	
11	0	0	0	0	524	
12	0	0	0	0	519	
13	0	0	0	0	519	
14	0	0	0	0	515	
15	0	0	0	0	511	
0	0	0	0	0	508	
1	0	0	0	0	509	
2	0	0	0	0	502	
3	0	0	0	0	489	
4	0	0	0	0	492	
5	0	0	0	0	494	
6	0	0	0	0	502	
7	0	0	0	0	504	
8	0	0	0	0	504	
9	0	0	0	0	511	
10	0	0	0	0	516	
11	0	0	0	0	519	
12	0	0	0	0	519	
13	0	0	0	0	524	
14	0	0	0	0	525	
15	0	0	0	0	524	
0	0	0	0	0	523	
1	0	0	0	0	521	
2	0	0	0	0	517	
3	0	0	0	0	511	
4	0	0	0	0	506	
5	0	0	0	0	501	
6	0	0	0	0	500	
7	0	0	0	0	497	
8	0	0	0	0	496	
9	0	0	0	0	499	
10	0	0	0	0	503	
11	0	0	0	0	502	
12	0	0	0	0	509	
13	0	0	0	0	512	
14	0	0	0	0	518	
15	0	0	0	0	522	
0	0	0	0	0	521	
1	0	0	0	0	512	
2	0	0	0	0	513	
3	0	0	0	0	518	
4	0	0	0	0	523	
5	0	0	0	0	519	
6	0	0	0	0	517	
7	0	0	0	0	514	
8	0	0	0	0	510	
9	0	0	0	0	507	
10	0	0	0	0	505	
11	0	0	0	0	500	
12	0	0	0	0	496	
13	0	0	0	0	500	
14	0	0	0	0	504	
15	0	0	0	0	505	
0	0	0	0	0	506	
1	0	0	0	0	510	
2	0	0	0	0	512	
3	0	0	0	0	513	
4	0	0	0	0	519	
5	0	0	0	0	524	
6	0	0	0	0	526	
7	0	0	0	0	523	
8	0	0	0	0	521	
9	0	0	0	0	519	
10	0	0	0	0	516	
11	0	0	0	0	509	
12	0	0	0	0	506	
13	0	0	0	0	506	
14	0	0	0	0	502	
15	0	0	0	0	500	
0	0	0	0	0	495	
1	0	0	0	0	495	
2	0	0	0	0	499	
3	0	0	0	0	505	
4	0	0	0	0	512	
5	0	0	0	0	513	
6	0	0	0	0	509	
7	0	0	0	0	517	
8	0	0	0	0	519	
9	0	0	0	0	520	
10	0	0	0	0	523	
11	0	0	0	0	523	
12	0	0	0	0	520	
13	0	0	0	0	517	
14	0	0	0	0	514	
15	0	0	0	0	513	
0	0	0	0	0	511	
1	0	0	0	0	506	
2	0	0	0	0	504	
3	0	0	0	0	501	
4	0	0	0	0	497	
5	0	0	0	0	496	
6	0	0	0	0	500	
7	0	0	0	0	508	
8	0	0	0	0	510	
9	0	0	0	0	513	
10	0	0	0	0	515	
11	0	0	0	0	513	
12	0	0	0	0	517	
13	0	0	0	0	522	
14	0	0	0	0	521	
15	0	0	0	0	524	
0	0	0	0	0	520	
1	0	0	0	0	513	
2	0	0	0	0	515	
3	0	0	0	0	511	
4	0	0	0	0	507	
5	0	0	0	0	509	
6	0	0	0	0	502	
7	0	0	0	0	502	
8	0	0	0	0	497	
9	0	0	0	0	496	
10	0	0	0	0	497	
11	0	0	0	0	499	
12	0	0	0	0	506	
13	0	0	0	0	511	
14	0	0	0	0	514	
15	0	0	0	0	516	
0	0	0	0	0	520	
1	0	0	0	0	525	
2	0	0	0	0	524	
3	0	0	0	0	524	
4	0	0	0	0	520	
5	0	0	0	0	519	
6	0	0	0	0	510	
7	0	0	0	0	509	
8	0	0	0	0	508	
9	0	0	0	0	508	
10	0	0	0	0	505	
11	0	0	0	0	500	
12	0	0	0	0	499	
13	0	0	0	0	496	
14	0	0	0	0	499	
15	0	0	0	0	503	
0	0	0	0	0	507	
1	0	0	0	0	515	
2	0	0	0	0	515	
3	0	0	0	0	516	
4	0	0	0	0	518	
5	0	0	0	0	520	
6	0	0	0	0	523	
7	0	0	0	0	522	
8	0	0	0	0	523	
9	0	0	0	0	518	
10	0	0	0	0	515	
11	0	0	0	0	510	
12	0	0	0	0	505	
13	0	0	0	0	504	
14	0	0	0	0	508	
15	0	0	0	0	502	
0	0	0	0	0	500	
1	0	0	0	0	502	
2	0	0	0	0	501	
3	0	0	0	0	502	
4	0	0	0	0	504	
5	0	0	0	0	510	
6	0	0	0	0	507	
7	0	0	0	0	513	
8	0	0	0	0	520	
9	0	0	0	0	522	
10	0	0	0	0	524	
11	0	0	0	0	523	
12	0	0	0	0	519	
13	0	0	0	0	515	
14	0	0	0	0	511	
15	0	0	0	0	510	
0	0	0	0	0	510	
1	0	0	0	0	509	
2	0	0	0	0	509	
3	0	0	0	0	503	
4	0	0	0	0	502	
5	0	0	0	0	501	
6	0	0	0	0	502	
7	0	0	0	0	504	
8	0	0	0	0	510	
9	0	0	0	0	509	
10	0	0	0	0	510	
11	0	0	0	0	516	
12	0	0	0	0	521	
13	0	0	0	0	525	
14	0	0	0	0	526	
15	0	0	0	0	523	
0	0	0	0	0	521	
1	0	0	0	0	512	
2	0	0	0	0	513	
3	0	0	0	0	511	
4	0	0	0	0	508	
5	0	0	0	0	507	
6	0	0	0	0	506	
7	0	0	0	0	502	
8	0	0	0	0	499	
9	0	0	0	0	498	
10	0	0	0	0	499	
11	0	0	0	0	505	
12	0	0	0	0	508	
13	0	0	0	0	514	
14	0	0	0	0	512	
15	0	0	0	0	515	
0	0	0	0	0	515	
1	0	0	0	0	520	
2	0	0	0	0	523	
3	0	0	0	0	524	
4	0	0	0	0	519	
5	0	0	0	0	517	
6	0	0	0	0	515	
7	0	0	0	0	511	
8	0	0	0	0	507	
9	0	0	0	0	505	
10	0	0	0	0	504	
11	0	0	0	0	500	
12	0	0	0	0	497	
13	0	0	0	0	498	
14	0	0	0	0	499	
15	0	0	0	0	505	
0	0	0	0	0	509	
1	0	0	0	0	515	
2	0	0	0	0	518	
3	0	0	0	0	519	
4	0	0	0	0	519	
5	0	0	0	0	519	
6	0	0	0	0	523	
7	0	0	0	0	522	
8	0	0	0	0	518	
9	0	0	0	0	517	
10	0	0	0	0	513	
11	0	0	0	0	513	
12	0	0	0	0	511	
13	0	0	0	0	507	
14	0	0	0	0	503	
15	0	0	0	0	501	
0	0	0	0	0	499	
1	0	0	0	0	496	
2	0	0	0	0	497	
3	0	0	0	0	504	
4	0	0	0	0	504	
5	0	0	0	0	511	
6	0	0	0	0	514	
7	0	0	0	0	520	
8	0	0	0	0	523	
9	0	0	0	0	526	
10	0	0	0	0	527	
11	0	0	0	0	519	
12	0	0	0	0	516	
13	0	0	0	0	513	
14	0	0	0	0	510	
15	0	0	0	0	511	
0	0	0	0	0	507	
1	0	0	0	0	508	
2	0	0	0	0	505	
3	0	0	0	0	503	
4	0	0	0	0	502	
5	0	0	0	0	500	
6	0	0	0	0	502	
7	0	0	0	0	499	
8	0	0	0	0	505	
9	0	0	0	0	508	
10	0	0	0	0	515	
11	0	0	0	0	513	
12	0	0	0	0	515	
13	0	0	0	0	520	
14	0	0	0	0	522	
15	0	0	0	0	521	
0	0	0	0	0	524	
1	0	0	0	0	521	
2	0	0	0	0	514	
3	0	0	0	0	511	
4	0	0	0	0	510	
5	0	0	0	0	507	
6	0	0	0	0	504	
7	0	0	0	0	498	
8	0	0	0	0	498	
9	0	0	0	0	500	
10	0	0	0	0	500	
11	0	0	0	0	503	
12	0	0	0	0	506	
13	0	0	0	0	511	
14	0	0	0	0	513	
15	0	0	0	0	514	
0	0	0	0	0	513	
1	0	0	0	0	521	
2	0	0	0	0	524	
3	0	0	0	0	525	
4	0	0	0	0	522	
5	0	0	0	0	522	
6	0	0	0	0	516	
7	0	0	0	0	511	
8	0	0	0	0	508	
9	0	0	0	0	507	
10	0	0	0	0	504	
11	0	0	0	0	502	
12	0	0	0	0	496	
13	0	0	0	0	498	
14	0	0	0	0	500	
15	0	0	0	0	504	
0	0	0	0	0	510	
1	0	0	0	0	510	
2	0	0	0	0	510	
3	0	0	0	0	515	
4	0	0	0	0	519	
5	0	0	0	0	528	
6	0	0	0	0	525	
7	0	0	0	0	523	
8	0	0	0	0	518	
9	0	0	0	0	517	
10	0	0	0	0	514	
11	0	0	0	0	507	
12	0	0	0	0	504	
13	0	0	0	0	501	
14	0	0	0	0	504	
15	0	0	0	0	497	
0	0	0	0	0	500	
1	0	0	0	0	498	
2	0	0	0	0	500	
3	0	0	0	0	503	
4	0	0	0	0	508	
5	0	0	0	0	512	
6	0	0	0	0	518	
7	0	0	0	0	520	
8	0	0	0	0	518	
9	0	0	0	0	519	
10	0	0	0	0	516	
11	0	0	0	0	516	
12	0	0	0	0	519	
13	0	0	0	0	517	
14	0	0	0	0	518	
15	0	0	0	0	513	
0	0	0	0	0	510	
1	0	0	0	0	508	
2	0	0	0	0	504	
3	0	0	0	0	502	
4	0	0	0	0	505	
5	0	0	0	0	505	
6	0	0	0	0	503	
7	0	0	0	0	504	
8	0	0	0	0	506	
9	0	0	0	0	508	
10	0	0	0	0	514	
11	0	0	0	0	515	
12	0	0	0	0	515	
13	0	0	0	0	518	
14	0	0	0	0	519	
15	0	0	0	0	520	
0	0	0	0	0	519	
1	0	0	0	0	518	
2	0	0	0	0	509	
3	0	0	0	0	508	
4	0	0	0	0	506	
5	0	0	0	0	504	
6	0	0	0	0	504	
7	0	0	0	0	504	
8	0	0	0	0	503	
9	0	0	0	0	502	
10	0	0	0	0	502	
11	0	0	0	0	505	
12	0	0	0	0	510	
13	0	0	0	0	512	
14	0	0	0	0	513	
15	0	0	0	0	519	
0	0	0	0	0	516	
1	0	0	0	0	517	
2	0	0	0	0	521	
3	0	0	0	0	519	
4	0	0	0	0	517	
5	0	0	0	0	515	
6	0	0	0	0	512	
7	0	0	0	0	510	
8	0	0	0	0	508	
9	0	0	0	0	508	
10	0	0	0	0	505	
11	0	0	0	0	503	
12	0	0	0	0	501	
13	0	0	0	0	497	
14	0	0	0	0	497	
15	0	0	0	0	503	
0	0	0	0	0	509	
1	0	0	0	0	512	
2	0	0	0	0	518	
3	0	0	0	0	519	
4	0	0	0	0	521	
5	0	0	0	0	523	
6	0	0	0	0	526	
7	0	0	0	0	526	
8	0	0	0	0	520	
9	0	0	0	0	515	
10	0	0	0	0	515	
11	0	0	0	0	511	
12	0	0	0	0	505	
13	0	0	0	0	505	
14	0	0	0	0	502	
15	0	0	0	0	500	
0	0	0	0	0	501	
1	0	0	0	0	499	
2	0	0	0	0	502	
3	0	0	0	0	507	
4	0	0	0	0	504	
5	0	0	0	0	505	
6	0	0	0	0	510	
7	0	0	0	0	515	
8	0	0	0	0	516	
9	0	0	0	0	526	
10	0	0	0	0	526	
11	0	0	0	0	524	
12	0	0	0	0	522	
13	0	0	0	0	523	
14	0	0	0	0	516	
15	0	0	0	0	506	
0	0	0	0	0	500	
1	0	0	0	0	497	
2	0	0	0	0	500	
3	0	0	0	0	501	
4	0	0	0	0	501	
5	0	0	0	0	501	
6	0	0	0	0	505	
7	0	0	0	0	504	
8	0	0	0	0	507	
9	0	0	0	0	511	
10	0	0	0	0	512	
11	0	0	0	0	516	
12	0	0	0	0	519	
13	0	0	0	0	520	
14	0	0	0	0	523	
15	0	0	0	0	523	
0	0	0	0	0	522	
1	0	0	0	0	518	
2	0	0	0	0	515	
3	0	0	0	0	513	
4	0	0	0	0	509	
5	0	0	0	0	508	
6	0	0	0	0	501	
7	0	0	0	0	494	
8	0	0	0	0	492	
9	0	0	0	0	497	
10	0	0	0	0	502	
11	0	0	0	0	505	
12	0	0	0	0	510	
13	0	0	0	0	514	
14	0	0	0	0	515	
15	0	0	0	0	517	
0	0	0	0	0	521	
1	0	0	0	0	522	
2	0	0	0	0	525	
3	0	0	0	0	522	
4	0	0	0	0	519	
5	0	0	0	0	519	
6	0	0	0	0	515	
7	0	0	0	0	513	
8	0	0	0	0	514	
9	0	0	0	0	510	
10	0	0	0	0	500	
11	0	0	0	0	493	
12	0	0	0	0	489	
13	0	0	0	0	494	
14	0	0	0	0	503	
15	0	0	0	0	504	
0	0	0	0	0	508	
1	0	0	0	0	509	
2	0	0	0	0	513	
3	0	0	0	0	519	
4	0	0	0	0	516	
5	0	0	0	0	522	
6	0	0	0	0	524	
7	0	0	0	0	519	
8	0	0	0	0	519	
9	0	0	0	0	517	
10	0	0	0	0	513	
11	0	0	0	0	512	
12	0	0	0	0	508	
13	0	0	0	0	508	
14	0	0	0	0	508	
15	0	0	0	0	503	
0	0	0	0	0	499	
1	0	0	0	0	502	
2	0	0	0	0	500	
3	0	0	0	0	504	
4	0	0	0	0	507	
5	0	0	0	0	512	
6	0	0	0	0	515	
7	0	0	0	0	516	
8	0	0	0	0	518	
9	0	0	0	0	523	
10	0	0	0	0	523	
11	0	0	0	0	521	
12	0	0	0	0	518	
13	0	0	0	0	516	
14	0	0	0	0	514	
15	0	0	0	0	511	
0	0	0	0	0	508	
1	0	0	0	0	500	
2	0	0	0	0	492	
3	0	0	0	0	497	
4	0	0	0	0	506	
5	0	0	0	0	505	
6	0	0	0	0	505	
7	0	0	0	0	504	
8	0	0	0	0	501	
9	0	0	0	0	509	
10	0	0	0	0	513	
11	0	0	0	0	518	
12	0	0	0	0	519	
13	0	0	0	0	519	
14	0	0	0	0	523	
15	0	0	0	0	521	
0	0	0	0	0	519	
1	0	0	0	0	516	
2	0	0	0	0	513	
3	0	0	0	0	511	
4	0	0	0	0	508	
5	0	0	0	0	507	
6	0	0	0	0	504	
7	0	0	0	0	502	
8	0	0	0	0	504	
9	0	0	0	0	500	
10	0	0	0	0	499	
11	0	0	0	0	497	
12	0	0	0	0	501	
13	0	0	0	0	511	
14	0	0	0	0	514	
15	0	0	0	0	517	
0	0	0	0	0	523	
1	0	0	0	0	521	
2	0	0	0	0	526	
3	0	0	0	0	521	
4	0	0	0	0	520	
5	0	0	0	0	520	
6	0	0	0	0	509	
7	0	0	0	0	505	
8	0	0	0	0	506	
9	0	0	0	0	504	
10	0	0	0	0	504	
11	0	0	0	0	502	
12	0	0	0	0	500	
13	0	0	0	0	499	
14	0	0	0	0	501	
15	0	0	0	0	504	
0	0	0	0	0	508	
1	0	0	0	0	509	
2	0	0	0	0	514	
3	0	0	0	0	518	
4	0	0	0	0	520	
5	0	0	0	0	526	
6	0	0	0	0	523	
7	0	0	0	0	522	
8	0	0	0	0	521	
9	0	0	0	0	519	
10	0	0	0	0	516	
11	0	0	0	0	509	
12	0	0	0	0	510	
13	0	0	0	0	511	
14	0	0	0	0	502	
15	0	0	0	0	496	
0	0	0	0	0	498	
1	0	0	0	0	501	
2	0	0	0	0	503	
3	0	0	0	0	503	
4	0	0	0	0	503	
5	0	0	0	0	512	
6	0	0	0	0	514	
7	0	0	0	0	520	
8	0	0	0	0	523	
9	0	0	0	0	522	
10	0	0	0	0	524	
11	0	0	0	0	524	
12	0	0	0	0	521	
13	0	0	0	0	519	
14	0	0	0	0	513	
15	0	0	0	0	509	
0	0	0	0	0	506	
1	0	0	0	0	503	
2	0	0	0	0	507	
3	0	0	0	0	505	
4	0	0	0	0	496	
5	0	0	0	0	500	
6	0	0	0	0	502	
7	0	0	0	0	501	
8	0	0	0	0	506	
9	0	0	0	0	510	
10	0	0	0	0	515	
11	0	0	0	0	516	
12	0	0	0	0	515	
13	0	0	0	0	519	
14	0	0	0	0	522	
15	0	0	0	0	518	
0	0	0	0	0	517	
1	0	0	0	0	515	
2	0	0	0	0	518	
3	0	0	0	0	515	
4	0	0	0	0	507	
5	0	0	0	0	504	
6	0	0	0	0	507	
7	0	0	0	0	500	
8	0	0	0	0	502	
9	0	0	0	0	504	
10	0	0	0	0	504	
11	0	0	0	0	505	
12	0	0	0	0	505	
13	0	0	0	0	506	
14	0	0	0	0	507	
15	0	0	0	0	510	
0	0	0	0	0	516	
1	0	0	0	0	524	
2	0	0	0	0	529	
3	0	0	0	0	529	
4	0	0	0	0	523	
5	0	0	0	0	519	
6	0	0	0	0	516	
7	0	0	0	0	511	
8	0	0	0	0	508	
9	0	0	0	0	504	
10	0	0	0	0	502	
11	0	0	0	0	498	
12	0	0	0	0	501	
13	0	0	0	0	505	
14	0	0	0	0	504	
15	0	0	0	0	506	
0	0	0	0	0	507	
1	0	0	0	0	506	
2	0	0	0	0	506	
3	0	0	0	0	508	
4	0	0	0	0	513	
5	0	0	0	0	525	
6	0	0	0	0	528	
7	0	0	0	0	526	
8	0	0	0	0	521	
9	0	0	0	0	519	
10	0	0	0	0	515	
11	0	0	0	0	512	
12	0	0	0	0	509	
13	0	0	0	0	505	
14	0	0	0	0	504	
15	0	0	0	0	499	
0	0	0	0	0	496	
1	0	0	0	0	497	
2	0	0	0	0	504	
3	0	0	0	0	502	
4	0	0	0	0	508	
5	0	0	0	0	508	
6	0	0	0	0	511	
7	0	0	0	0	515	
8	0	0	0	0	519	
9	0	0	0	0	522	
10	0	0	0	0	526	
11	0	0	0	0	524	
12	0	0	0	0	516	
13	0	0	0	0	514	
14	0	0	0	0	512	
15	0	0	0	0	513	
0	0	0	0	0	508	
1	0	0	0	0	505	
2	0	0	0	0	502	
3	0	0	0	0	500	
4	0	0	0	0	500	
5	0	0	0	0	499	
6	0	0	0	0	500	
7	0	0	0	0	505	
8	0	0	0	0	511	
9	0	0	0	0	516	
10	0	0	0	0	517	
11	0	0	0	0	511	
12	0	0	0	0	516	
13	0	0	0	0	516	
14	0	0	0	0	513	
15	0	0	0	0	519	
0	0	0	0	0	519	
1	0	0	0	0	517	
2	0	0	0	0	514	
3	0	0	0	0	516	
4	0	0	0	0	511	
5	0	0	0	0	507	
6	0	0	0	0	505	
7	0	0	0	0	501	
8	0	0	0	0	499	
9	0	0	0	0	500	
10	0	0	0	0	506	
11	0	0	0	0	507	
12	0	0	0	0	511	
13	0	0	0	0	511	
14	0	0	0	0	510	
15	0	0	0	0	512	
0	0	0	0	0	516	
1	0	0	0	0	521	
2	0	0	0	0	522	
3	0	0	0	0	521	
4	0	0	0	0	519	
5	0	0	0	0	518	
6	0	0	0	0	510	
7	0	0	0	0	508	
8	0	0	0	0	509	
9	0	0	0	0	506	
10	0	0	0	0	505	
11	0	0	0	0	499	
12	0	0	0	0	496	
13	0	0	0	0	499	
14	0	0	0	0	508	
15	0	0	0	0	508	
0	0	0	0	0	509	
1	0	0	0	0	515	
2	0	0	0	0	517	
3	0	0	0	0	518	
4	0	0	0	0	514	
5	0	0	0	0	511	
6	0	0	0	0	514	
7	0	0	0	0	518	
8	0	0	0	0	522	
9	0	0	0	0	518	
10	0	0	0	0	512	
11	0	0	0	0	511	
12	0	0	0	0	505	
13	0	0	0	0	506	
14	0	0	0	0	502	
15	0	0	0	0	499	
0	0	0	0	0	500	
1	0	0	0	0	502	
2	0	0	0	0	507	
3	0	0	0	0	508	
4	0	0	0	0	505	
5	0	0	0	0	508	
6	0	0	0	0	510	
7	0	0	0	0	512	
8	0	0	0	0	520	
9	0	0	0	0	522	
10	0	0	0	0	527	
11	0	0	0	0	525	
12	0	0	0	0	524	
13	0	0	0	0	520	
14	0	0	0	0	515	
15	0	0	0	0	511	
0	0	0	0	0	508	
1	0	0	0	0	503	
2	0	0	0	0	504	
3	0	0	0	0	500	
4	0	0	0	0	497	
5	0	0	0	0	498	
6	0	0	0	0	502	
7	0	0	0	0	507	
8	0	0	0	0	510	
9	0	0	0	0	512	
10	0	0	0	0	517	
11	0	0	0	0	519	
12	0	0	0	0	515	
13	0	0	0	0	516	
14	0	0	0	0	521	
15	0	0	0	0	520	
0	0	0	0	0	518	
1	0	0	0	0	518	
2	0	0	0	0	514	
3	0	0	0	0	508	
4	0	0	0	0	506	
5	0	0	0	0	504	
6	0	0	0	0	506	
7	0	0	0	0	501	
8	0	0	0	0	500	
9	0	0	0	0	499	
10	0	0	0	0	503	
11	0	0	0	0	506	
12	0	0	0	0	508	
13	0	0	0	0	513	
14	0	0	0	0	514	
15	0	0	0	0	520	
0	0	0	0	0	521	
1	0	0	0	0	524	
2	0	0	0	0	527	
3	0	0	0	0	524	
4	0	0	0	0	521	
5	0	0	0	0	514	
6	0	0	0	0	510	
7	0	0	0	0	509	
8	0	0	0	0	511	
9	0	0	0	0	504	
10	0	0	0	0	497	
11	0	0	0	0	496	
12	0	0	0	0	495	
13	0	0	0	0	497	
14	0	0	0	0	503	
15	0	0	0	0	504	
0	0	0	0	0	508	
1	0	0	0	0	512	
2	0	0	0	0	517	
3	0	0	0	0	520	
4	0	0	0	0	522	
5	0	0	0	0	526	
6	0	0	0	0	525	
7	0	0	0	0	521	
8	0	0	0	0	518	
9	0	0	0	0	519	
10	0	0	0	0	512	
11	0	0	0	0	510	
12	0	0	0	0	511	
13	0	0	0	0	505	
14	0	0	0	0	501	
15	0	0	0	0	496	
0	0	0	0	0	497	
1	0	0	0	0	499	
2	0	0	0	0	502	
3	0	0	0	0	501	
4	0	0	0	0	507	
5	0	0	0	0	514	
6	0	0	0	0	519	
7	0	0	0	0	519	
8	0	0	0	0	518	
9	0	0	0	0	521	
10	0	0	0	0	523	
11	0	0	0	0	520	
12	0	0	0	0	519	
13	0	0	0	0	515	
14	0	0	0	0	515	
15	0	0	0	0	511	
0	0	0	0	0	508	
1	0	0	0	0	508	
2	0	0	0	0	504	
3	0	0	0	0	499	
4	0	0	0	0	497	
5	0	0	0	0	499	
6	0	0	0	0	502	
7	0	0	0	0	507	
8	0	0	0	0	509	
9	0	0	0	0	508	
10	0	0	0	0	510	
11	0	0	0	0	513	
12	0	0	0	0	519	
13	0	0	0	0	524	
14	0	0	0	0	528	
15	0	0	0	0	525	
0	0	0	0	0	526	
1	0	0	0	0	520	
2	0	0	0	0	511	
3	0	0	0	0	504	
4	0	0	0	0	501	
5	0	0	0	0	502	
6	0	0	0	0	504	
7	0	0	0	0	499	
8	0	0	0	0	497	
9	0	0	0	0	502	
10	0	0	0	0	504	
11	0	0	0	0	507	
12	0	0	0	0	511	
13	0	0	0	0	508	
14	0	0	0	0	514	
15	0	0	0	0	520	
0	0	0	0	0	517	
1	0	0	0	0	520	
2	0	0	0	0	520	
3	0	0	0	0	522	
4	0	0	0	0	521	
5	0	0	0	0	514	
6	0	0	0	0	515	
7	0	0	0	0	512	
8	0	0	0	0	509	
9	0	0	0	0	509	
10	0	0	0	0	504	
11	0	0	0	0	501	
12	0	0	0	0	497	
13	0	0	0	0	497	
14	0	0	0	0	502	
15	0	0	0	0	505	
0	0	0	0	0	508	
1	0	0	0	0	512	
2	0	0	0	0	513	
3	0	0	0	0	513	
4	0	0	0	0	516	
5	0	0	0	0	523	
6	0	0	0	0	527	
7	0	0	0	0	526	
8	0	0	0	0	523	
9	0	0	0	0	518	
10	0	0	0	0	512	
11	0	0	0	0	504	
12	0	0	0	0	503	
13	0	0	0	0	503	
14	0	0	0	0	499	
15	0	0	0	0	498	
0	0	0	0	0	498	
1	0	0	0	0	501	
2	0	0	0	0	504	
3	0	0	0	0	504	
4	0	0	0	0	507	
5	0	0	0	0	512	
6	0	0	0	0	514	
7	0	0	0	0	520	
8	0	0	0	0	524	
9	0	0	0	0	529	
10	0	0	0	0	527	
11	0	0	0	0	523	
12	0	0	0	0	519	
13	0	0	0	0	514	
14	0	0	0	0	511	
15	0	0	0	0	508	
0	0	0	0	0	510	
1	0	0	0	0	508	
2	0	0	0	0	506	
3	0	0	0	0	497	
4	0	0	0	0	495	
5	0	0	0	0	497	
6	0	0	0	0	503	
7	0	0	0	0	505	
8	0	0	0	0	509	
9	0	0	0	0	513	
10	0	0	0	0	514	
11	0	0	0	0	512	
12	0	0	0	0	516	
13	0	0	0	0	522	
14	0	0	0	0	521	
15	0	0	0	0	521	
0	0	0	0	0	519	
1	0	0	0	0	520	
2	0	0	0	0	513	
3	0	0	0	0	511	
4	0	0	0	0	509	
5	0	0	0	0	507	
6	0	0	0	0	502	
7	0	0	0	0	501	
8	0	0	0	0	497	
9	0	0	0	0	499	
10	0	0	0	0	499	
11	0	0	0	0	501	
12	0	0	0	0	508	
13	0	0	0	0	511	
14	0	0	0	0	515	
15	0	0	0	0	516	
0	0	0	0	0	520	
1	0	0	0	0	521	
2	0	0	0	0	520	
3	0	0	0	0	517	
4	0	0	0	0	516	
5	0	0	0	0	515	
6	0	0	0	0	515	
7	0	0	0	0	512	
8	0	0	0	0	509	
9	0	0	0	0	508	
10	0	0	0	0	506	
11	0	0	0	0	505	
12	0	0	0	0	501	
13	0	0	0	0	500	
14	0	0	0	0	505	
15	0	0	0	0	508	
0	0	0	0	0	511	
1	0	0	0	0	510	
2	0	0	0	0	509	
3	0	0	0	0	515	
4	0	0	0	0	516	
5	0	0	0	0	521	
6	0	0	0	0	524	
7	0	0	0	0	522	
8	0	0	0	0	517	
9	0	0	0	0	514	
10	0	0	0	0	515	
11	0	0	0	0	515	
12	0	0	0	0	514	
13	0	0	0	0	511	
14	0	0	0	0	502	
15	0	0	0	0	502	
0	0	0	0	0	494	
1	0	0	0	0	496	
2	0	0	0	0	500	
3	0	0	0	0	502	
4	0	0	0	0	510	
5	0	0	0	0	512	
6	0	0	0	0	515	
7	0	0	0	0	520	
8	0	0	0	0	524	
9	0	0	0	0	522	
10	0	0	0	0	520	
11	0	0	0	0	520	
12	0	0	0	0	518	
13	0	0	0	0	515	
14	0	0	0	0	510	
15	0	0	0	0	511	
0	0	0	0	0	508	
1	0	0	0	0	505	
2	0	0	0	0	507	
3	0	0	0	0	502	
4	0	0	0	0	500	
5	0	0	0	0	502	
6	0	0	0	0	503	
7	0	0	0	0	506	
8	0	0	0	0	505	
9	0	0	0	0	507	
10	0	0	0	0	513	
11	0	0	0	0	519	
12	0	0	0	0	524	
13	0	0	0	0	521	
14	0	0	0	0	521	
15	0	0	0	0	519	
0	0	0	0	0	518	
1	0	0	0	0	518	
2	0	0	0	0	514	
3	0	0	0	0	509	
4	0	0	0	0	507	
5	0	0	0	0	505	
6	0	0	0	0	503	
7	0	0	0	0	499	
8	0	0	0	0	500	
9	0	0	0	0	501	
10	0	0	0	0	500	
11	0	0	0	0	501	
12	0	0	0	0	505	
13	0	0	0	0	507	
14	0	0	0	0	512	
15	0	0	0	0	519	
0	0	0	0	0	520	
1	0	0	0	0	526	
2	0	0	0	0	522	
3	0	0	0	0	521	
4	0	0	0	0	519	
5	0	0	0	0	512	
6	0	0	0	0	511	
7	0	0	0	0	510	
8	0	0	0	0	506	
9	0	0	0	0	505	
10	0	0	0	0	504	
11	0	0	0	0	500	
12	0	0	0	0	502	
13	0	0	0	0	499	
14	0	0	0	0	503	
15	0	0	0	0	505	
0	0	0	0	0	510	
1	0	0	0	0	511	
2	0	0	0	0	515	
3	0	0	0	0	513	
4	0	0	0	0	514	
5	0	0	0	0	526	
6	0	0	0	0	527	
7	0	0	0	0	526	
8	0	0	0	0	524	
9	0	0	0	0	510	
10	0	0	0	0	512	
11	0	0	0	0	510	
12	0	0	0	0	508	
13	0	0	0	0	508	
14	0	0	0	0	501	
15	0	0	0	0	502	
0	0	0	0	0	502	
1	0	0	0	0	502	
2	0	0	0	0	505	
3	0	0	0	0	505	
4	0	0	0	0	509	
5	0	0	0	0	511	
6	0	0	0	0	509	
7	0	0	0	0	511	
8	0	0	0	0	513	
9	0	0	0	0	517	
10	0	0	0	0	523	
11	0	0	0	0	523	
12	0	0	0	0	519	
13	0	0	0	0	522	
14	0	0	0	0	513	
15	0	0	0	0	510	
0	0	0	0	0	509	
1	0	0	0	0	507	
2	0	0	0	0	505	
3	0	0	0	0	502	
4	0	0	0	0	500	
5	0	0	0	0	498	
6	0	0	0	0	502	
7	0	0	0	0	505	
8	0	0	0	0	510	
9	0	0	0	0	512	
10	0	0	0	0	514	
11	0	0	0	0	516	
12	0	0	0	0	516	
13	0	0	0	0	520	
14	0	0	0	0	524	
15	0	0	0	0	521	
0	0	0	0	0	520	
1	0	0	0	0	519	
2	0	0	0	0	515	
3	0	0	0	0	510	
4	0	0	0	0	510	
5	0	0	0	0	504	
6	0	0	0	0	499	
7	0	0	0	0	499	
8	0	0	0	0	498	
9	0	0	0	0	500	
10	0	0	0	0	504	
11	0	0	0	0	506	
12	0	0	0	0	506	
13	0	0	0	0	511	
14	0	0	0	0	510	
15	0	0	0	0	512	
0	0	0	0	0	519	
1	0	0	0	0	524	
2	0	0	0	0	527	
3	0	0	0	0	519	
4	0	0	0	0	519	
5	0	0	0	0	515	
6	0	0	0	0	513	
7	0	0	0	0	515	
8	0	0	0	0	508	
9	0	0	0	0	503	
10	0	0	0	0	505	
11	0	0	0	0	502	
12	0	0	0	0	499	
13	0	0	0	0	499	
14	0	0	0	0	499	
15	0	0	0	0	504	
0	0	0	0	0	510	
1	0	0	0	0	515	
2	0	0	0	0	515	
3	0	0	0	0	518	
4	0	0	0	0	520	
5	0	0	0	0	524	
6	0	0	0	0	526	
7	0	0	0	0	523	
8	0	0	0	0	518	
9	0	0	0	0	517	
10	0	0	0	0	512	
11	0	0	0	0	503	
12	0	0	0	0	504	
13	0	0	0	0	508	
14	0	0	0	0	506	
15	0	0	0	0	502	
0	0	0	0	0	499	
1	0	0	0	0	497	
2	0	0	0	0	500	
3	0	0	0	0	501	
4	0	0	0	0	506	
5	0	0	0	0	510	
6	0	0	0	0	512	
7	0	0	0	0	517	
8	0	0	0	0	519	
9	0	0	0	0	523	
10	0	0	0	0	529	
11	0	0	0	0	526	
12	0	0	0	0	521	
13	0	0	0	0	511	
14	0	0	0	0	508	
15	0	0	0	0	508	
0	0	0	0	0	507	
1	0	0	0	0	504	
2	0	0	0	0	500	
3	0	0	0	0	497	
4	0	0	0	0	497	
5	0	0	0	0	502	
6	0	0	0	0	504	
7	0	0	0	0	506	
8	0	0	0	0	507	
9	0	0	0	0	509	
10	0	0	0	0	514	
11	0	0	0	0	517	
12	0	0	0	0	518	
13	0	0	0	0	523	
14	0	0	0	0	519	
15	0	0	0	0	523	
0	0	0	0	0	519	
1	0	0	0	0	516	
2	0	0	0	0	517	
3	0	0	0	0	511	
4	0	0	0	0	511	
5	0	0	0	0	504	
6	0	0	0	0	498	
7	0	0	0	0	498	
8	0	0	0	0	492	
9	0	0	0	0	495	
10	0	0	0	0	501	
11	0	0	0	0	507	
12	0	0	0	0	513	
13	0	0	0	0	519	
14	0	0	0	0	516	
15	0	0	0	0	514	
0	0	0	0	0	513	
1	0	0	0	0	518	
2	0	0	0	0	526	
3	0	0	0	0	526	
4	0	0	0	0	525	
5	0	0	0	0	519	
6	0	0	0	0	514	
7	0	0	0	0	512	
8	0	0	0	0	507	
9	0	0	0	0	502	
10	0	0	0	0	500	
11	0	0	0	0	499	
12	0	0	0	0	503	
13	0	0	0	0	501	
14	0	0	0	0	504	
15	0	0	0	0	504	
0	0	0	0	0	509	
1	0	0	0	0	512	
2	0	0	0	0	516	
3	0	0	0	0	516	
4	0	0	0	0	516	
5	0	0	0	0	520	
6	0	0	0	0	521	
7	0	0	0	0	514	
8	0	0	0	0	515	
9	0	0	0	0	514	
10	0	0	0	0	512	
11	0	0	0	0	509	
12	0	0	0	0	509	
13	0	0	0	0	511	
14	0	0	0	0	503	
15	0	0	0	0	503	
0	0	0	0	0	499	
1	0	0	0	0	499	
2	0	0	0	0	503	
3	0	0	0	0	507	
4	0	0	0	0	510	
5	0	0	0	0	507	
6	0	0	0	0	515	
7	0	0	0	0	518	
8	0	0	0	0	522	
9	0	0	0	0	529	
10	0	0	0	0	525	
11	0	0	0	0	520	
12	0	0	0	0	517	
13	0	0	0	0	510	
14	0	0	0	0	509	
15	0	0	0	0	508	
0	0	0	0	0	510	
1	0	0	0	0	510	
2	0	0	0	0	508	
3	0	0	0	0	502	
4	0	0	0	0	498	
5	0	0	0	0	498	
6	0	0	0	0	502	
7	0	0	0	0	506	
8	0	0	0	0	508	
9	0	0	0	0	512	
10	0	0	0	0	512	
11	0	0	0	0	515	
12	0	0	0	0	517	
13	0	0	0	0	518	
14	0	0	0	0	521	
15	0	0	0	0	520	
0	0	0	0	0	520	
1	0	0	0	0	516	
2	0	0	0	0	518	
3	0	0	0	0	513	
4	0	0	0	0	509	
5	0	0	0	0	507	
6	0	0	0	0	504	
7	0	0	0	0	500	
8	0	0	0	0	498	
9	0	0	0	0	500	
10	0	0	0	0	502	
11	0	0	0	0	507	
12	0	0	0	0	509	
13	0	0	0	0	510	
14	0	0	0	0	516	
15	0	0	0	0	516	
0	0	0	0	0	516	
1	0	0	0	0	519	
2	0	0	0	0	519	
3	0	0	0	0	520	
4	0	0	0	0	522	
5	0	0	0	0	519	
6	0	0	0	0	513	
7	0	0	0	0	508	
8	0	0	0	0	506	
9	0	0	0	0	505	
10	0	0	0	0	505	
11	0	0	0	0	502	
12	0	0	0	0	497	
13	0	0	0	0	496	
14	0	0	0	0	502	
15	0	0	0	0	502	
0	0	0	0	0	509	
1	0	0	0	0	514	
2	0	0	0	0	512	
3	0	0	0	0	516	
4	0	0	0	0	519	
5	0	0	0	0	520	
6	0	0	0	0	522	
7	0	0	0	0	517	
8	0	0	0	0	515	
9	0	0	0	0	515	
10	0	0	0	0	512	
11	0	0	0	0	512	
12	0	0	0	0	512	
13	0	0	0	0	508	
14	0	0	0	0	505	
15	0	0	0	0	496	
0	0	0	0	0	496	
1	0	0	0	0	502	
2	0	0	0	0	508	
3	0	0	0	0	513	
4	0	0	0	0	516	
5	0	0	0	0	511	
6	0	0	0	0	507	
7	0	0	0	0	505	
8	0	0	0	0	513	
9	0	0	0	0	519	
10	0	0	0	0	523	
11	0	0	0	0	521	
12	0	0	0	0	519	
13	0	0	0	0	520	
14	0	0	0	0	519	
15	0	0	0	0	515	
0	0	0	0	0	515	
1	0	0	0	0	506	
2	0	0	0	0	497	
3	0	0	0	0	495	
4	0	0	0	0	498	
5	0	0	0	0	499	
6	0	0	0	0	503	
7	0	0	0	0	509	
8	0	0	0	0	511	
9	0	0	0	0	513	
10	0	0	0	0	510	
11	0	0	0	0	515	
12	0	0	0	0	519	
13	0	0	0	0	525	
14	0	0	0	0	524	
15	0	0	0	0	520	
0	0	0	0	0	519	
1	0	0	0	0	515	
2	0	0	0	0	512	
3	0	0	0	0	510	
4	0	0	0	0	509	
5	0	0	0	0	504	
6	0	0	0	0	503	
7	0	0	0	0	497	
8	0	0	0	0	497	
9	0	0	0	0	500	
10	0	0	0	0	504	
11	0	0	0	0	504	
12	0	0	0	0	507	
13	0	0	0	0	513	
14	0	0	0	0	517	
15	0	0	0	0	512	
0	0	0	0	0	513	
1	0	0	0	0	521	
2	0	0	0	0	522	
3	0	0	0	0	523	
4	0	0	0	0	518	
5	0	0	0	0	519	
6	0	0	0	0	514	
7	0	0	0	0	510	
8	0	0	0	0	508	
9	0	0	0	0	504	
10	0	0	0	0	499	
11	0	0	0	0	500	
12	0	0	0	0	498	
13	0	0	0	0	499	
14	0	0	0	0	498	
15	0	0	0	0	503	
0	0	0	0	0	509	
1	0	0	0	0	514	
2	0	0	0	0	519	
3	0	0	0	0	519	
4	0	0	0	0	518	
5	0	0	0	0	524	
6	0	0	0	0	531	
7	0	0	0	0	526	
8	0	0	0	0	520	
9	0	0	0	0	515	
10	0	0	0	0	511	
11	0	0	0	0	507	
12	0	0	0	0	503	
13	0	0	0	0	503	
14	0	0	0	0	502	
15	0	0	0	0	499	
0	0	0	0	0	499	
1	0	0	0	0	502	
2	0	0	0	0	505	
3	0	0	0	0	507	
4	0	0	0	0	509	
5	0	0	0	0	506	
6	0	0	0	0	512	
7	0	0	0	0	519	
8	0	0	0	0	521	
9	0	0	0	0	524	
10	0	0	0	0	524	
11	0	0	0	0	521	
12	0	0	0	0	520	
13	0	0	0	0	519	
14	0	0	0	0	515	
15	0	0	0	0	510	
0	0	0	0	0	503	
1	0	0	0	0	504	
2	0	0	0	0	501	
3	0	0	0	0	500	
4	0	0	0	0	497	
5	0	0	0	0	500	
6	0	0	0	0	504	
7	0	0	0	0	507	
8	0	0	0	0	511	
9	0	0	0	0	512	
10	0	0	0	0	511	
11	0	0	0	0	513	
12	0	0	0	0	516	
13	0	0	0	0	523	
14	0	0	0	0	524	
15	0	0	0	0	518	
0	0	0	0	0	517	
1	0	0	0	0	515	
2	0	0	0	0	511	
3	0	0	0	0	508	
4	0	0	0	0	507	
5	0	0	0	0	505	
6	0	0	0	0	503	
7	0	0	0	0	497	
8	0	0	0	0	497	
9	0	0	0	0	498	
10	0	0	0	0	501	
11	0	0	0	0	504	
12	0	0	0	0	511	
13	0	0	0	0	515	
14	0	0	0	0	521	
15	0	0	0	0	521	
0	0	0	0	0	520	
1	0	0	0	0	519	
2	0	0	0	0	526	
3	0	0	0	0	522	
4	0	0	0	0	520	
5	0	0	0	0	517	
6	0	0	0	0	514	
7	0	0	0	0	510	
8	0	0	0	0	508	
9	0	0	0	0	500	
10	0	0	0	0	496	
11	0	0	0	0	498	
12	0	0	0	0	500	
13	0	0	0	0	499	
14	0	0	0	0	503	
15	0	0	0	0	505	
0	0	0	0	0	512	
1	0	0	0	0	515	
2	0	0	0	0	519	
3	0	0	0	0	519	
4	0	0	0	0	521	
5	0	0	0	0	524	
6	0	0	0	0	527	
7	0	0	0	0	521	
8	0	0	0	0	519	
9	0	0	0	0	516	
10	0	0	0	0	513	
11	0	0	0	0	511	
12	0	0	0	0	508	
13	0	0	0	0	503	
14	0	0	0	0	499	
15	0	0	0	0	500	
0	0	0	0	0	502	
1	0	0	0	0	499	
2	0	0	0	0	503	
3	0	0	0	0	504	
4	0	0	0	0	507	
5	0	0	0	0	514	
6	0	0	0	0	512	
7	0	0	0	0	515	
8	0	0	0	0	519	
9	0	0	0	0	523	
10	0	0	0	0	523	
11	0	0	0	0	518	
12	0	0	0	0	516	
13	0	0	0	0	521	
14	0	0	0	0	521	
15	0	0	0	0	520	
0	0	0	0	0	508	
1	0	0	0	0	500	
2	0	0	0	0	501	
3	0	0	0	0	496	
4	0	0	0	0	494	
5	0	0	0	0	498	
6	0	0	0	0	501	
7	0	0	0	0	504	
8	0	0	0	0	506	
9	0	0	0	0	508	
10	0	0	0	0	516	
11	0	0	0	0	520	
12	0	0	0	0	520	
13	0	0	0	0	524	
14	0	0	0	0	531	
15	0	0	0	0	529	
0	0	0	0	0	523	
1	0	0	0	0	516	
2	0	0	0	0	512	
3	0	0	0	0	502	
4	0	0	0	0	503	
5	0	0	0	0	500	
6	0	0	0	0	502	
7	0	0	0	0	504	
8	0	0	0	0	498	
9	0	0	0	0	499	
10	0	0	0	0	502	
11	0	0	0	0	504	
12	0	0	0	0	507	
13	0	0	0	0	509	
14	0	0	0	0	509	
15	0	0	0	0	516	
0	0	0	0	0	519	
1	0	0	0	0	523	
2	0	0	0	0	519	
3	0	0	0	0	520	
4	0	0	0	0	522	
5	0	0	0	0	520	
6	0	0	0	0	519	
7	0	0	0	0	508	
8	0	0	0	0	504	
9	0	0	0	0	500	
10	0	0	0	0	504	
11	0	0	0	0	500	
12	0	0	0	0	501	
13	0	0	0	0	499	
14	0	0	0	0	502	
15	0	0	0	0	503	
0	0	0	0	0	507	
1	0	0	0	0	517	
2	0	0	0	0	518	
3	0	0	0	0	517	
4	0	0	0	0	519	
5	0	0	0	0	523	
6	0	0	0	0	528	
7	0	0	0	0	525	
8	0	0	0	0	522	
9	0	0	0	0	517	
10	0	0	0	0	510	
11	0	0	0	0	510	
12	0	0	0	0	509	
13	0	0	0	0	502	
14	0	0	0	0	498	
15	0	0	0	0	494	
0	0	0	0	0	492	
1	0	0	0	0	492	
2	0	0	0	0	494	
3	0	0	0	0	502	
4	0	0	0	0	511	
5	0	0	0	0	516	
6	0	0	0	0	518	
7	0	0	0	0	519	
8	0	0	0	0	524	
9	0	0	0	0	527	
10	0	0	0	0	526	
11	0	0	0	0	524	
12	0	0	0	0	522	
13	0	0	0	0	515	
14	0	0	0	0	511	
15	0	0	0	0	510	
0	0	0	0	0	508	
1	0	0	0	0	505	
2	0	0	0	0	499	
3	0	0	0	0	495	
4	0	0	0	0	495	
5	0	0	0	0	494	
6	0	0	0	0	501	
7	0	0	0	0	503	
8	0	0	0	0	508	
9	0	0	0	0	513	
10	0	0	0	0	511	
11	0	0	0	0	517	
12	0	0	0	0	522	
13	0	0	0	0	529	
14	0	0	0	0	530	
15	0	0	0	0	524	
0	0	0	0	0	519	
1	0	0	0	0	516	
2	0	0	0	0	518	
3	0	0	0	0	513	
4	0	0	0	0	508	
5	0	0	0	0	502	
6	0	0	0	0	499	
7	0	0	0	0	496	
8	0	0	0	0	495	
9	0	0	0	0	495	
10	0	0	0	0	499	
11	0	0	0	0	503	
12	0	0	0	0	512	
13	0	0	0	0	516	
14	0	0	0	0	521	
15	0	0	0	0	519	
0	0	0	0	0	525	
1	0	0	0	0	530	
2	0	0	0	0	530	
3	0	0	0	0	526	
4	0	0	0	0	521	
5	0	0	0	0	515	
6	0	0	0	0	513	
7	0	0	0	0	510	
8	0	0	0	0	505	
9	0	0	0	0	503	
10	0	0	0	0	499	
11	0	0	0	0	496	
12	0	0	0	0	491	
13	0	0	0	0	496	
14	0	0	0	0	503	
15	0	0	0	0	509	
0	0	0	0	0	511	
1	0	0	0	0	512	
2	0	0	0	0	520	
3	0	0	0	0	517	
4	0	0	0	0	520	
5	0	0	0	0	526	
6	0	0	0	0	529	
7	0	0	0	0	524	
8	0	0	0	0	519	
9	0	0	0	0	515	
10	0	0	0	0	508	
11	0	0	0	0	503	
12	0	0	0	0	503	
13	0	0	0	0	501	
14	0	0	0	0	502	
15	0	0	0	0	496	
0	0	0	0	0	491	
1	0	0	0	0	495	
2	0	0	0	0	499	
3	0	0	0	0	506	
4	0	0	0	0	515	
5	0	0	0	0	517	
6	0	0	0	0	518	
7	0	0	0	0	521	
8	0	0	0	0	524	
9	0	0	0	0	531	
10	0	0	0	0	531	
11	0	0	0	0	524	
12	0	0	0	0	519	
13	0	0	0	0	513	
14	0	0	0	0	506	
15	0	0	0	0	498	
0	0	0	0	0	498	
1	0	0	0	0	499	
2	0	0	0	0	503	
3	0	0	0	0	499	
4	0	0	0	0	497	
5	0	0	0	0	497	
6	0	0	0	0	499	
7	0	0	0	0	503	
8	0	0	0	0	510	
9	0	0	0	0	508	
10	0	0	0	0	512	
11	0	0	0	0	519	
12	0	0	0	0	531	
13	0	0	0	0	539	
14	0	0	0	0	536	
15	0	0	0	0	526	
0	0	0	0	0	519	
1	0	0	0	0	513	
2	0	0	0	0	505	
3	0	0	0	0	504	
4	0	0	0	0	504	
5	0	0	0	0	499	
6	0	0	0	0	496	
7	0	0	0	0	492	
8	0	0	0	0	488	
9	0	0	0	0	492	
10	0	0	0	0	497	
11	0	0	0	0	506	
12	0	0	0	0	512	
13	0	0	0	0	521	
14	0	0	0	0	527	
15	0	0	0	0	529	
0	0	0	0	0	529	
1	0	0	0	0	529	
2	0	0	0	0	527	
3	0	0	0	0	524	
4	0	0	0	0	516	
5	0	0	0	0	515	
6	0	0	0	0	510	
7	0	0	0	0	505	
8	0	0	0	0	501	
9	0	0	0	0	495	
10	0	0	0	0	491	
11	0	0	0	0	489	
12	0	0	0	0	488	
13	0	0	0	0	494	
14	0	0	0	0	501	
15	0	0	0	0	510	
0	0	0	0	0	519	
1	0	0	0	0	526	
2	0	0	0	0	528	
3	0	0	0	0	527	
4	0	0	0	0	529	
5	0	0	0	0	528	
6	0	0	0	0	530	
7	0	0	0	0	527	
8	0	0	0	0	522	
9	0	0	0	0	513	
10	0	0	0	0	508	
11	0	0	0	0	504	
12	0	0	0	0	500	
13	0	0	0	0	497	
14	0	0	0	0	494	
15	0	0	0	0	489	
0	0	0	0	0	489	
1	0	0	0	0	491	
2	0	0	0	0	502	
3	0	0	0	0	508	
4	0	0	0	0	513	
5	0	0	0	0	515	
6	0	0	0	0	520	
7	0	0	0	0	522	
8	0	0	0	0	526	
9	0	0	0	0	533	
10	0	0	0	0	535	
11	0	0	0	0	531	
12	0	0	0	0	527	
13	0	0	0	0	512	
14	0	0	0	0	506	
15	0	0	0	0	504	
0	0	0	0	0	497	
1	0	0	0	0	497	
2	0	0	0	0	490	
3	0	0	0	0	487	
4	0	0	0	0	492	
5	0	0	0	0	499	
6	0	0	0	0	502	
7	0	0	0	0	504	
8	0	0	0	0	514	
9	0	0	0	0	519	
10	0	0	0	0	518	
11	0	0	0	0	520	
12	0	0	0	0	521	
13	0	0	0	0	528	
14	0	0	0	0	534	
15	0	0	0	0	531	
0	0	0	0	0	524	
1	0	0	0	0	521	
2	0	0	0	0	513	
3	0	0	0	0	506	
4	0	0	0	0	504	
5	0	0	0	0	496	
6	0	0	0	0	489	
7	0	0	0	0	486	
8	0	0	0	0	486	
9	0	0	0	0	497	
10	0	0	0	0	503	
11	0	0	0	0	507	
12	0	0	0	0	513	
13	0	0	0	0	512	
14	0	0	0	0	518	
15	0	0	0	0	522	
0	0	0	0	0	518	
1	0	0	0	0	523	
2	0	0	0	0	534	
3	0	0	0	0	531	
4	0	0	0	0	523	
5	0	0	0	0	515	
6	0	0	0	0	510	
7	0	0	0	0	509	
8	0	0	0	0	508	
9	0	0	0	0	504	
10	0	0	0	0	499	
11	0	0	0	0	490	
12	0	0	0	0	487	
13	0	0	0	0	491	
14	0	0	0	0	496	
15	0	0	0	0	504	
0	0	0	0	0	508	
1	0	0	0	0	514	
2	0	0	0	0	518	
3	0	0	0	0	519	
4	0	0	0	0	525	
5	0	0	0	0	532	
6	0	0	0	0	529	
7	0	0	0	0	526	
8	0	0	0	0	524	
9	0	0	0	0	516	
10	0	0	0	0	511	
11	0	0	0	0	504	
12	0	0	0	0	502	
13	0	0	0	0	500	
14	0	0	0	0	498	
15	0	0	0	0	496	
0	0	0	0	0	498	
1	0	0	0	0	502	
2	0	0	0	0	504	
3	0	0	0	0	510	
4	0	0	0	0	510	
5	0	0	0	0	512	
6	0	0	0	0	515	
7	0	0	0	0	519	
8	0	0	0	0	525	
9	0	0	0	0	530	
10	0	0	0	0	529	
11	0	0	0	0	523	
12	0	0	0	0	514	
13	0	0	0	0	508	
14	0	0	0	0	507	
15	0	0	0	0	502	
0	0	0	0	0	503	
1	0	0	0	0	503	
2	0	0	0	0	503	
3	0	0	0	0	496	
4	0	0	0	0	491	
5	0	0	0	0	493	
6	0	0	0	0	499	
7	0	0	0	0	505	
8	0	0	0	0	512	
9	0	0	0	0	518	
10	0	0	0	0	520	
11	0	0	0	0	525	
12	0	0	0	0	528	
13	0	0	0	0	534	
14	0	0	0	0	536	
15	0	0	0	0	533	
0	0	0	0	0	524	
1	0	0	0	0	516	
2	0	0	0	0	506	
3	0	0	0	0	495	
4	0	0	0	0	499	
5	0	0	0	0	498	
6	0	0	0	0	494	
7	0	0	0	0	492	
8	0	0	0	0	488	
9	0	0	0	0	495	
10	0	0	0	0	500	
11	0	0	0	0	505	
12	0	0	0	0	510	
13	0	0	0	0	521	
14	0	0	0	0	523	
15	0	0	0	0	523	
0	0	0	0	0	523	
1	0	0	0	0	528	
2	0	0	0	0	533	
3	0	0	0	0	529	
4	0	0	0	0	518	
5	0	0	0	0	515	
6	0	0	0	0	510	
7	0	0	0	0	507	
8	0	0	0	0	501	
9	0	0	0	0	500	
10	0	0	0	0	499	
11	0	0	0	0	495	
12	0	0	0	0	491	
13	0	0	0	0	492	
14	0	0	0	0	500	
15	0	0	0	0	507	
0	0	0	0	0	510	
1	0	0	0	0	515	
2	0	0	0	0	519	
3	0	0	0	0	522	
4	0	0	0	0	524	
5	0	0	0	0	532	
6	0	0	0	0	538	
7	0	0	0	0	530	
8	0	0	0	0	522	
9	0	0	0	0	518	
10	0	0	0	0	505	
11	0	0	0	0	502	
12	0	0	0	0	496	
13	0	0	0	0	497	
14	0	0	0	0	493	
15	0	0	0	0	489	
0	0	0	0	0	492	
1	0	0	0	0	499	
2	0	0	0	0	496	
3	0	0	0	0	503	
4	0	0	0	0	509	
5	0	0	0	0	516	
6	0	0	0	0	520	
7	0	0	0	0	524	
8	0	0	0	0	531	
9	0	0	0	0	537	
10	0	0	0	0	535	
11	0	0	0	0	527	
12	0	0	0	0	518	
13	0	0	0	0	512	
14	0	0	0	0	505	
15	0	0	0	0	505	
0	0	0	0	0	507	
1	0	0	0	0	504	
2	0	0	0	0	500	
3	0	0	0	0	495	
4	0	0	0	0	488	
5	0	0	0	0	487	
6	0	0	0	0	495	
7	0	0	0	0	503	
8	0	0	0	0	509	
9	0	0	0	0	512	
10	0	0	0	0	519	
11	0	0	0	0	521	
12	0	0	0	0	523	
13	0	0	0	0	526	
14	0	0	0	0	523	
15	0	0	0	0	520	
0	0	0	0	0	517	
1	0	0	0	0	518	
2	0	0	0	0	516	
3	0	0	0	0	508	
4	0	0	0	0	502	
5	0	0	0	0	498	
6	0	0	0	0	490	
7	0	0	0	0	489	
8	0	0	0	0	492	
9	0	0	0	0	499	
10	0	0	0	0	508	
11	0	0	0	0	510	
12	0	0	0	0	510	
13	0	0	0	0	516	
14	0	0	0	0	524	
15	0	0	0	0	529	
0	0	0	0	0	535	
1	0	0	0	0	536	
2	0	0	0	0	531	
3	0	0	0	0	527	
4	0	0	0	0	524	
5	0	0	0	0	515	
6	0	0	0	0	508	
7	0	0	0	0	500	
8	0	0	0	0	502	
9	0	0	0	0	498	
10	0	0	0	0	497	
11	0	0	0	0	494	
12	0	0	0	0	492	
13	0	0	0	0	490	
14	0	0	0	0	491	
15	0	0	0	0	499	
0	0	0	0	0	511	
1	0	0	0	0	518	
2	0	0	0	0	523	
3	0	0	0	0	525	
4	0	0	0	0	531	
5	0	0	0	0	533	
6	0	0	0	0	531	
7	0	0	0	0	524	
8	0	0	0	0	520	
9	0	0	0	0	516	
10	0	0	0	0	508	
11	0	0	0	0	499	
12	0	0	0	0	498	
13	0	0	0	0	496	
14	0	0	0	0	496	
15	0	0	0	0	494	
0	0	0	0	0	490	
1	0	0	0	0	497	
2	0	0	0	0	505	
3	0	0	0	0	510	
4	0	0	0	0	514	
5	0	0	0	0	519	
6	0	0	0	0	519	
7	0	0	0	0	525	
8	0	0	0	0	529	
9	0	0	0	0	528	
10	0	0	0	0	525	
11	0	0	0	0	522	
12	0	0	0	0	517	
13	0	0	0	0	515	
14	0	0	0	0	511	
15	0	0	0	0	506	
0	0	0	0	0	501	
1	0	0	0	0	496	
2	0	0	0	0	492	
3	0	0	0	0	491	
4	0	0	0	0	495	
5	0	0	0	0	499	
6	0	0	0	0	504	
7	0	0	0	0	510	
8	0	0	0	0	511	
9	0	0	0	0	515	
10	0	0	0	0	517	
11	0	0	0	0	513	
12	0	0	0	0	517	
13	0	0	0	0	530	
14	0	0	0	0	537	
15	0	0	0	0	536	
0	0	0	0	0	524	
1	0	0	0	0	519	
2	0	0	0	0	511	
3	0	0	0	0	504	
4	0	0	0	0	499	
5	0	0	0	0	498	
6	0	0	0	0	496	
7	0	0	0	0	492	
8	0	0	0	0	492	
9	0	0	0	0	495	
10	0	0	0	0	499	
11	0	0	0	0	508	
12	0	0	0	0	512	
13	0	0	0	0	516	
14	0	0	0	0	520	
15	0	0	0	0	523	
0	0	0	0	0	514	
1	0	0	0	0	518	
2	0	0	0	0	528	
3	0	0	0	0	530	
4	0	0	0	0	528	
5	0	0	0	0	519	
6	0	0	0	0	515	
7	0	0	0	0	511	
8	0	0	0	0	506	
9	0	0	0	0	503	
10	0	0	0	0	506	
11	0	0	0	0	503	
12	0	0	0	0	495	
13	0	0	0	0	494	
14	0	0	0	0	495	
15	0	0	0	0	499	
0	0	0	0	0	504	
1	0	0	0	0	507	
2	0	0	0	0	513	
3	0	0	0	0	516	
4	0	0	0	0	519	
5	0	0	0	0	531	
6	0	0	0	0	530	
7	0	0	0	0	527	
8	0	0	0	0	522	
9	0	0	0	0	517	
10	0	0	0	0	513	
11	0	0	0	0	506	
12	0	0	0	0	503	
13	0	0	0	0	504	
14	0	0	0	0	496	
15	0	0	0	0	494	
0	0	0	0	0	496	
1	0	0	0	0	499	
2	0	0	0	0	503	
3	0	0	0	0	508	
4	0	0	0	0	503	
5	0	0	0	0	506	
6	0	0	0	0	517	
7	0	0	0	0	524	
8	0	0	0	0	531	
9	0	0	0	0	533	
10	0	0	0	0	530	
11	0	0	0	0	521	
12	0	0	0	0	520	
13	0	0	0	0	523	
14	0	0	0	0	524	
15	0	0	0	0	521	
0	0	0	0	0	513	
1	0	0	0	0	504	
2	0	0	0	0	498	
3	0	0	0	0	493	
4	0	0	0	0	492	
5	0	0	0	0	492	
6	0	0	0	0	495	
7	0	0	0	0	493	
8	0	0	0	0	494	
9	0	0	0	0	499	
10	0	0	0	0	505	
11	0	0	0	0	517	
12	0	0	0	0	525	
13	0	0	0	0	529	
14	0	0	0	0	535	
15	0	0	0	0	527	
0	0	0	0	0	522	
1	0	0	0	0	515	
2	0	0	0	0	511	
3	0	0	0	0	508	
4	0	0	0	0	504	
5	0	0	0	0	503	
6	0	0	0	0	500	
7	0	0	0	0	494	
8	0	0	0	0	491	
9	0	0	0	0	499	
10	0	0	0	0	504	
11	0	0	0	0	510	
12	0	0	0	0	514	
13	0	0	0	0	518	
14	0	0	0	0	524	
15	0	0	0	0	523	
0	0	0	0	0	523	
1	0	0	0	0	523	
2	0	0	0	0	526	
3	0	0	0	0	523	
4	0	0	0	0	519	
5	0	0	0	0	512	
6	0	0	0	0	511	
7	0	0	0	0	508	
8	0	0	0	0	511	
9	0	0	0	0	505	
10	0	0	0	0	504	
11	0	0	0	0	499	
12	0	0	0	0	492	
13	0	0	0	0	493	
14	0	0	0	0	490	
15	0	0	0	0	497	
0	0	0	0	0	501	
1	0	0	0	0	513	
2	0	0	0	0	520	
3	0	0	0	0	527	
4	0	0	0	0	528	
5	0	0	0	0	533	
6	0	0	0	0	534	
7	0	0	0	0	527	
8	0	0	0	0	522	
9	0	0	0	0	515	
10	0	0	0	0	507	
11	0	0	0	0	508	
12	0	0	0	0	504	
13	0	0	0	0	500	
14	0	0	0	0	494	
15	0	0	0	0	488	
0	0	0	0	0	492	
1	0	0	0	0	499	
2	0	0	0	0	498	
3	0	0	0	0	502	
4	0	0	0	0	511	
5	0	0	0	0	515	
6	0	0	0	0	514	
7	0	0	0	0	519	
8	0	0	0	0	526	
9	0	0	0	0	529	
10	0	0	0	0	530	
11	0	0	0	0	525	
12	0	0	0	0	528	
13	0	0	0	0	520	
14	0	0	0	0	510	
15	0	0	0	0	505	
0	0	0	0	0	506	
1	0	0	0	0	499	
2	0	0	0	0	494	
3	0	0	0	0	491	
4	0	0	0	0	492	
5	0	0	0	0	497	
6	0	0	0	0	504	
7	0	0	0	0	506	
8	0	0	0	0	513	
9	0	0	0	0	517	
10	0	0	0	0	516	
11	0	0	0	0	524	
12	0	0	0	0	527	
13	0	0	0	0	529	
14	0	0	0	0	531	
15	0	0	0	0	521	
0	0	0	0	0	522	
1	0	0	0	0	511	
2	0	0	0	0	502	
3	0	0	0	0	495	
4	0	0	0	0	500	
5	0	0	0	0	502	
6	0	0	0	0	498	
7	0	0	0	0	494	
8	0	0	0	0	493	
9	0	0	0	0	497	
10	0	0	0	0	510	
11	0	0	0	0	510	
12	0	0	0	0	510	
13	0	0	0	0	515	
14	0	0	0	0	519	
15	0	0	0	0	524	
0	0	0	0	0	524	
1	0	0	0	0	533	
2	0	0	0	0	534	
3	0	0	0	0	526	
4	0	0	0	0	522	
5	0	0	0	0	515	
6	0	0	0	0	512	
7	0	0	0	0	506	
8	0	0	0	0	502	
9	0	0	0	0	500	
10	0	0	0	0	492	
11	0	0	0	0	486	
12	0	0	0	0	486	
13	0	0	0	0	492	
14	0	0	0	0	496	
15	0	0	0	0	504	
0	0	0	0	0	514	
1	0	0	0	0	520	
2	0	0	0	0	525	
3	0	0	0	0	527	
4	0	0	0	0	524	
5	0	0	0	0	524	
6	0	0	0	0	521	
7	0	0	0	0	522	
8	0	0	0	0	522	
9	0	0	0	0	520	
10	0	0	0	0	519	
11	0	0	0	0	506	
12	0	0	0	0	502	
13	0	0	0	0	501	
14	0	0	0	0	495	
15	0	0	0	0	489	
0	0	0	0	0	489	
1	0	0	0	0	494	
2	0	0	0	0	502	
3	0	0	0	0	508	
4	0	0	0	0	517	
5	0	0	0	0	524	
6	0	0	0	0	522	
7	0	0	0	0	522	
8	0	0	0	0	524	
9	0	0	0	0	531	
10	0	0	0	0	528	
11	0	0	0	0	523	
12	0	0	0	0	519	
13	0	0	0	0	511	
14	0	0	0	0	506	
15	0	0	0	0	505	
0	0	0	0	0	504	
1	0	0	0	0	500	
2	0	0	0	0	500	
3	0	0	0	0	495	
4	0	0	0	0	492	
5	0	0	0	0	491	
6	0	0	0	0	492	
7	0	0	0	0	504	
8	0	0	0	0	511	
9	0	0	0	0	516	
10	0	0	0	0	521	
11	0	0	0	0	526	
12	0	0	0	0	526	
13	0	0	0	0	530	
14	0	0	0	0	531	
15	0	0	0	0	523	
0	0	0	0	0	523	
1	0	0	0	0	518	
2	0	0	0	0	512	
3	0	0	0	0	506	
4	0	0	0	0	502	
5	0	0	0	0	496	
6	0	0	0	0	497	
7	0	0	0	0	495	
8	0	0	0	0	495	
9	0	0	0	0	500	
10	0	0	0	0	504	
11	0	0	0	0	508	
12	0	0	0	0	510	
13	0	0	0	0	517	
14	0	0	0	0	520	
15	0	0	0	0	518	
0	0	0	0	0	518	
1	0	0	0	0	527	
2	0	0	0	0	532	
3	0	0	0	0	532	
4	0	0	0	0	525	
5	0	0	0	0	522	
6	0	0	0	0	512	
7	0	0	0	0	506	
8	0	0	0	0	501	
9	0	0	0	0	494	
10	0	0	0	0	494	
11	0	0	0	0	488	
12	0	0	0	0	490	
13	0	0	0	0	495	
14	0	0	0	0	503	
15	0	0	0	0	509	
0	0	0	0	0	515	
1	0	0	0	0	520	
2	0	0	0	0	518	
3	0	0	0	0	520	
4	0	0	0	0	520	
5	0	0	0	0	526	
6	0	0	0	0	528	
7	0	0	0	0	523	
8	0	0	0	0	515	
9	0	0	0	0	514	
10	0	0	0	0	511	
11	0	0	0	0	506	
12	0	0	0	0	503	
13	0	0	0	0	502	
14	0	0	0	0	502	
15	0	0	0	0	494	
0	0	0	0	0	488	
1	0	0	0	0	492	
2	0	0	0	0	498	
3	0	0	0	0	504	
4	0	0	0	0	515	
5	0	0	0	0	525	
6	0	0	0	0	525	
7	0	0	0	0	522	
8	0	0	0	0	523	
9	0	0	0	0	525	
10	0	0	0	0	531	
11	0	0	0	0	524	
12	0	0	0	0	517	
13	0	0	0	0	516	
14	0	0	0	0	511	
15	0	0	0	0	510	
0	0	0	0	0	508	
1	0	0	0	0	502	
2	0	0	0	0	497	
3	0	0	0	0	494	
4	0	0	0	0	491	
5	0	0	0	0	496	
6	0	0	0	0	499	
7	0	0	0	0	508	
8	0	0	0	0	510	
9	0	0	0	0	514	
10	0	0	0	0	517	
11	0	0	0	0	520	
12	0	0	0	0	526	
13	0	0	0	0	532	
14	0	0	0	0	534	
15	0	0	0	0	529	
0	0	0	0	0	522	
1	0	0	0	0	513	
2	0	0	0	0	510	
3	0	0	0	0	505	
4	0	0	0	0	503	
5	0	0	0	0	500	
6	0	0	0	0	493	
7	0	0	0	0	487	
8	0	0	0	0	489	
9	0	0	0	0	496	
10	0	0	0	0	498	
11	0	0	0	0	505	
12	0	0	0	0	511	
13	0	0	0	0	514	
14	0	0	0	0	516	
15	0	0	0	0	520	
0	0	0	0	0	521	
1	0	0	0	0	528	
2	0	0	0	0	533	
3	0	0	0	0	529	
4	0	0	0	0	523	
5	0	0	0	0	513	
6	0	0	0	0	508	
7	0	0	0	0	505	
8	0	0	0	0	506	
9	0	0	0	0	494	
10	0	0	0	0	491	
11	0	0	0	0	492	
12	0	0	0	0	494	
13	0	0	0	0	501	
14	0	0	0	0	504	
15	0	0	0	0	509	
0	0	0	0	0	516	
1	0	0	0	0	515	
2	0	0	0	0	517	
3	0	0	0	0	518	
4	0	0	0	0	522	
5	0	0	0	0	524	
6	0	0	0	0	528	
7	0	0	0	0	530	
8	0	0	0	0	527	
9	0	0	0	0	520	
10	0	0	0	0	513	
11	0	0	0	0	504	
12	0	0	0	0	501	
13	0	0	0	0	501	
14	0	0	0	0	498	
15	0	0	0	0	489	
0	0	0	0	0	480	
1	0	0	0	0	490	
2	0	0	0	0	498	
3	0	0	0	0	504	
4	0	0	0	0	514	
5	0	0	0	0	515	
6	0	0	0	0	516	
7	0	0	0	0	517	
8	0	0	0	0	521	
9	0	0	0	0	531	
10	0	0	0	0	533	
11	0	0	0	0	529	
12	0	0	0	0	520	
13	0	0	0	0	516	
14	0	0	0	0	509	
15	0	0	0	0	504	
0	0	0	0	0	503	
1	0	0	0	0	505	
2	0	0	0	0	500	
3	0	0	0	0	494	
4	0	0	0	0	495	
5	0	0	0	0	496	
6	0	0	0	0	501	
7	0	0	0	0	508	
8	0	0	0	0	512	
9	0	0	0	0	515	
10	0	0	0	0	520	
11	0	0	0	0	523	
12	0	0	0	0	531	
13	0	0	0	0	538	
14	0	0	0	0	532	
15	0	0	0	0	523	
0	0	0	0	0	519	
1	0	0	0	0	512	
2	0	0	0	0	507	
3	0	0	0	0	502	
4	0	0	0	0	496	
5	0	0	0	0	499	
6	0	0	0	0	498	
7	0	0	0	0	493	
8	0	0	0	0	498	
9	0	0	0	0	497	
10	0	0	0	0	499	
11	0	0	0	0	502	
12	0	0	0	0	507	
13	0	0	0	0	516	
14	0	0	0	0	523	
15	0	0	0	0	524	
0	0	0	0	0	521	
1	0	0	0	0	527	
2	0	0	0	0	530	
3	0	0	0	0	529	
4	0	0	0	0	526	
5	0	0	0	0	519	
6	0	0	0	0	511	
7	0	0	0	0	504	
8	0	0	0	0	500	
9	0	0	0	0	496	
10	0	0	0	0	488	
11	0	0	0	0	483	
12	0	0	0	0	482	
13	0	0	0	0	497	
14	0	0	0	0	507	
15	0	0	0	0	512	
0	0	0	0	0	515	
1	0	0	0	0	515	
2	0	0	0	0	522	
3	0	0	0	0	522	
4	0	0	0	0	528	
5	0	0	0	0	539	
6	0	0	0	0	540	
7	0	0	0	0	528	
8	0	0	0	0	516	
9	0	0	0	0	513	
10	0	0	0	0	511	
11	0	0	0	0	515	
12	0	0	0	0	511	
13	0	0	0	0	496	
14	0	0	0	0	480	
15	0	0	0	0	473	
0	0	0	0	0	487	
1	0	0	0	0	491	
2	0	0	0	0	495	
3	0	0	0	0	507	
4	0	0	0	0	521	
5	0	0	0	0	519	
6	0	0	0	0	524	
7	0	0	0	0	525	
8	0	0	0	0	525	
9	0	0	0	0	527	
10	0	0	0	0	531	
11	0	0	0	0	524	
12	0	0	0	0	528	
13	0	0	0	0	521	
14	0	0	0	0	514	
15	0	0	0	0	505	
0	0	0	0	0	492	
1	0	0	0	0	476	
2	0	0	0	0	471	
3	0	0	0	0	476	
4	0	0	0	0	508	
5	0	0	0	0	512	
6	0	0	0	0	501	
7	0	0	0	0	503	
8	0	0	0	0	518	
9	0	0	0	0	519	
10	0	0	0	0	520	
11	0	0	0	0	523	
12	0	0	0	0	529	
13	0	0	0	0	535	
14	0	0	0	0	544	
15	0	0	0	0	537	
0	0	0	0	0	536	
1	0	0	0	0	523	
2	0	0	0	0	507	
3	0	0	0	0	489	
4	0	0	0	0	478	
5	0	0	0	0	485	
6	0	0	0	0	488	
7	0	0	0	0	490	
8	0	0	0	0	487	
9	0	0	0	0	512	
10	0	0	0	0	525	
11	0	0	0	0	523	
12	0	0	0	0	508	
13	0	0	0	0	508	
14	0	0	0	0	518	
15	0	0	0	0	521	
0	0	0	0	0	520	
1	0	0	0	0	521	
2	0	0	0	0	514	
3	0	0	0	0	512	
4	0	0	0	0	524	
5	0	0	0	0	538	
6	0	0	0	0	528	
7	0	0	0	0	512	
8	0	0	0	0	505	
9	0	0	0	0	507	
10	0	0	0	0	502	
11	0	0	0	0	487	
12	0	0	0	0	490	
13	0	0	0	0	496	
14	0	0	0	0	498	
15	0	0	0	0	504	
0	0	0	0	0	510	
1	0	0	0	0	508	
2	0	0	0	0	516	
3	0	0	0	0	510	
4	0	0	0	0	505	
5	0	0	0	0	505	
6	0	0	0	0	516	
7	0	0	0	0	528	
8	0	0	0	0	545	
9	0	0	0	0	535	
10	0	0	0	0	534	
11	0	0	0	0	536	
12	0	0	0	0	515	
13	0	0	0	0	490	
14	0	0	0	0	483	
15	0	0	0	0	464	
0	0	0	0	0	463	
1	0	0	0	0	459	
2	0	0	0	0	503	
3	0	0	0	0	510	
4	0	0	0	0	526	
5	0	0	0	0	539	
6	0	0	0	0	518	
7	0	0	0	0	516	
8	0	0	0	0	556	
9	0	0	0	0	578	
10	0	0	0	0	548	
11	0	0	0	0	519	
12	0	0	0	0	492	
13	0	0	0	0	486	
14	0	0	0	0	494	
15	0	0	0	0	500	
0	0	0	0	0	499	
1	0	0	0	0	495	
2	0	0	0	0	500	
3	0	0	0	0	495	
4	0	0	0	0	482	
5	0	0	0	0	500	
6	0	0	0	0	518	
7	0	0	0	0	520	
8	0	0	0	0	519	
9	0	0	0	0	511	
10	0	0	0	0	516	
11	0	0	0	0	524	
12	0	0	0	0	511	
13	0	0	0	0	513	
14	0	0	0	0	538	
15	0	0	0	0	544	
0	0	0	0	0	532	
1	0	0	0	0	519	
2	0	0	0	0	503	
3	0	0	0	0	498	
4	0	0	0	0	498	
5	0	0	0	0	497	
6	0	0	0	0	482	
7	0	0	0	0	485	
8	0	0	0	0	507	
9	0	0	0	0	503	
10	0	0	0	0	505	
11	0	0	0	0	487	
12	0	0	0	0	479	
13	0	0	0	0	505	
14	0	0	0	0	534	
15	0	0	0	0	531	
0	0	0	0	0	537	
1	0	0	0	0	551	
2	0	0	0	0	553	
3	0	0	0	0	550	
4	0	0	0	0	536	
5	0	0	0	0	511	
6	0	0	0	0	497	
7	0	0	0	0	493	
8	0	0	0	0	500	
9	0	0	0	0	490	
10	0	0	0	0	474	
11	0	0	0	0	470	
12	0	0	0	0	478	
13	0	0	0	0	505	
14	0	0	0	0	510	
15	0	0	0	0	524	
0	0	0	0	0	524	
1	0	0	0	0	511	
2	0	0	0	0	508	
3	0	0	0	0	495	
4	0	0	0	0	499	
5	0	0	0	0	540	
6	0	0	0	0	559	
7	0	0	0	0	544	
8	0	0	0	0	528	
9	0	0	0	0	520	
10	0	0	0	0	509	
11	0	0	0	0	513	
12	0	0	0	0	499	
13	0	0	0	0	509	
14	0	0	0	0	514	
15	0	0	0	0	492	
0	0	0	0	0	469	
1	0	0	0	0	469	
2	0	0	0	0	493	
3	0	0	0	0	516	
4	0	0	0	0	506	
5	0	0	0	0	523	
6	0	0	0	0	506	
7	0	0	0	0	501	
8	0	0	0	0	482	
9	0	0	0	0	496	
10	0	0	0	0	576	
11	0	0	0	0	583	
12	0	0	0	0	556	
13	0	0	0	0	535	
14	0	0	0	0	492	
15	0	0	0	0	457	
0	0	0	0	0	457	
1	0	0	0	0	488	
2	0	0	0	0	510	
3	0	0	0	0	507	
4	0	0	0	0	544	
5	0	0	0	0	540	
6	0	0	0	0	517	
7	0	0	0	0	504	
8	0	0	0	0	494	
9	0	0	0	0	496	
10	0	0	0	0	505	
11	0	0	0	0	507	
12	0	0	0	0	535	
13	0	0	0	0	523	
14	0	0	0	0	501	
15	0	0	0	0	505	
0	0	0	0	0	516	
1	0	0	0	0	530	
2	0	0	0	0	529	
3	0	0	0	0	519	
4	0	0	0	0	520	
5	0	0	0	0	517	
6	0	0	0	0	512	
7	0	0	0	0	498	
8	0	0	0	0	496	
9	0	0	0	0	486	
10	0	0	0	0	479	
11	0	0	0	0	491	
12	0	0	0	0	512	
13	0	0	0	0	518	
14	0	0	0	0	513	
15	0	0	0	0	504	
0	0	0	0	0	499	
1	0	0	0	0	504	
2	0	0	0	0	530	
3	0	0	0	0	532	
4	0	0	0	0	558	
5	0	0	0	0	531	
6	0	0	0	0	496	
7	0	0	0	0	489	
8	0	0	0	0	486	
9	0	0	0	0	515	
10	0	0	0	0	547	
11	0	0	0	0	540	
12	0	0	0	0	513	
13	0	0	0	0	472	
14	0	0	0	0	468	
15	0	0	0	0	472	
0	0	0	0	0	481	
1	0	0	0	0	511	
2	0	0	0	0	528	
3	0	0	0	0	519	
4	0	0	0	0	523	
5	0	0	0	0	494	
6	0	0	0	0	530	
7	0	0	0	0	538	
8	0	0	0	0	511	
9	0	0	0	0	489	
10	0	0	0	0	532	
11	0	0	0	0	540	
12	0	0	0	0	536	
13	0	0	0	0	527	
14	0	0	0	0	496	
15	0	0	0	0	452	
0	0	0	0	0	468	
1	0	0	0	0	509	
2	0	0	0	0	519	
3	0	0	0	0	518	
4	0	0	0	0	540	
5	0	0	0	0	568	
6	0	0	0	0	524	
7	0	0	0	0	516	
8	0	0	0	0	512	
9	0	0	0	0	533	
10	0	0	0	0	535	
11	0	0	0	0	509	
12	0	0	0	0	448	
13	0	0	0	0	437	
14	0	0	0	0	466	
15	0	0	0	0	466	
0	0	0	0	0	519	
1	0	0	0	0	538	
2	0	0	0	0	515	
3	0	0	0	0	525	
4	0	0	0	0	525	
5	0	0	0	0	508	
6	0	0	0	0	526	
7	0	0	0	0	560	
8	0	0	0	0	543	
9	0	0	0	0	508	
10	0	0	0	0	482	
11	0	0	0	0	531	
12	0	0	0	0	614	
13	0	0	0	0	522	
14	0	0	0	0	495	
15	0	0	0	0	477	
0	0	0	0	0	446	
1	0	0	0	0	465	
2	0	0	0	0	474	
3	0	0	0	0	492	
4	0	0	0	0	497	
5	0	0	0	0	534	
6	0	0	0	0	542	
7	0	0	0	0	516	
8	0	0	0	0	468	
9	0	0	0	0	436	
10	0	0	0	0	423	
11	0	0	0	0	443	
12	0	0	0	0	587	
13	0	0	0	0	696	
14	0	0	0	0	640	
15	0	0	0	0	584	
0	0	0	0	0	562	
1	0	0	0	0	508	
2	0	0	0	0	459	
3	0	0	0	0	466	
4	0	0	0	0	501	
5	0	0	0	0	493	
6	0	0	0	0	448	
7	0	0	0	0	465	
8	0	0	0	0	510	
9	0	0	0	0	460	
10	0	0	0	0	484	
11	0	0	0	0	539	
12	0	0	0	0	508	
13	0	0	0	0	522	
14	0	0	0	0	508	
15	0	0	0	0	547	
0	0	0	0	0	561	
1	0	0	0	0	515	
2	0	0	0	0	479	
3	0	0	0	0	485	
4	0	0	0	0	536	
5	0	0	0	0	548	
6	0	0	0	0	517	
7	0	0	0	0	475	
8	0	0	0	0	487	
9	0	0	0	0	506	
10	0	0	0	0	504	
11	0	0	0	0	498	
12	0	0	0	0	487	
13	0	0	0	0	502	
14	0	0	0	0	482	
15	0	0	0	0	527	
0	0	0	0	0	562	
1	0	0	0	0	555	
2	0	0	0	0	562	
3	0	0	0	0	547	
4	0	0	0	0	516	
5	0	0	0	0	472	
6	0	0	0	0	475	
7	0	0	0	0	521	
8	0	0	0	0	507	
9	0	0	0	0	555	
10	0	0	0	0	507	
11	0	0	0	0	475	
12	0	0	0	0	442	
13	0	0	0	0	513	
14	0	0	0	0	600	
15	0	0	0	0	546	
0	0	0	0	0	630	
1	0	0	0	0	563	
2	0	0	0	0	422	
3	0	0	0	0	344	
4	0	0	0	0	329	
5	0	0	0	0	369	
6	0	0	0	0	492	
7	0	0	0	0	570	
8	0	0	0	0	553	
9	0	0	0	0	590	
10	0	0	0	0	542	
11	0	0	0	0	501	
12	0	0	0	0	508	
13	0	0	0	0	523	
14	0	0	0	0	604	
15	0	0	0	0	563	
0	0	0	0	0	461	
1	0	0	0	0	547	
2	0	0	0	0	598	
3	0	0	0	0	552	
4	0	0	0	0	525	
5	0	0	0	0	427	
6	0	0	0	0	441	
7	0	0	0	0	486	
8	0	0	0	0	474	
9	0	0	0	0	486	
10	0	0	0	0	491	
11	0	0	0	0	521	
12	0	0	0	0	492	
13	0	0	0	0	563	
14	0	0	0	0	532	
15	0	0	0	0	565	
0	0	0	0	0	508	
1	0	0	0	0	570	
2	0	0	0	0	570	
3	0	0	0	0	623	
4	0	0	0	0	609	
5	0	0	0	0	569	
6	0	0	0	0	585	
7	0	0	0	0	478	
8	0	0	0	0	234	
9	0	0	0	0	357	
10	0	0	0	0	428	
11	0	0	0	0	395	
12	0	0	0	0	483	
13	0	0	0	0	546	
14	0	0	0	0	551	
15	0	0	0	0	497	
0	0	0	0	0	480	
1	0	0	0	0	481	
2	0	0	0	0	539	
3	0	0	0	0	662	
4	0	0	0	0	573	
5	0	0	0	0	522	
6	0	0	0	0	570	
7	0	0	0	0	535	
8	0	0	0	0	469	
9	0	0	0	0	388	
10	0	0	0	0	487	
11	0	0	0	0	508	
12	0	0	0	0	551	
13	0	0	0	0	582	
14	0	0	0	0	498	
15	0	0	0	0	473	
0	0	0	0	0	430	
1	0	0	0	0	529	
2	0	0	0	0	524	
3	0	0	0	0	514	
4	0	0	0	0	481	
5	0	0	0	0	408	
6	0	0	0	0	409	
7	0	0	0	0	610	
8	0	0	0	0	670	
9	0	0	0	0	622	
10	0	0	0	0	591	
11	0	0	0	0	572	
12	0	0	0	0	524	
13	0	0	0	0	426	
14	0	0	0	0	510	
15	0	0	0	0	469	
0	0	0	0	0	488	
1	0	0	0	0	504	
2	0	0	0	0	512	
3	0	0	0	0	452	
4	0	0	0	0	467	
5	0	0	0	0	544	
6	0	0	0	0	519	
7	0	0	0	0	445	
8	0	0	0	0	497	
9	0	0	0	0	498	
10	0	0	0	0	520	
11	0	0	0	0	507	
12	0	0	0	0	476	
13	0	0	0	0	466	
14	0	0	0	0	480	
15	0	0	0	0	502	
0	0	0	0	0	528	
1	0	0	0	0	590	
2	0	0	0	0	544	
3	0	0	0	0	600	
4	0	0	0	0	569	
5	0	0	0	0	503	
6	0	0	0	0	491	
7	0	0	0	0	505	
8	0	0	0	0	587	
9	0	0	0	0	608	
10	0	0	0	0	470	
11	0	0	0	0	388	
12	0	0	0	0	474	
13	0	0	0	0	461	
14	0	0	0	0	428	
15	0	0	0	0	491	
0	0	0	0	0	440	
1	0	0	0	0	502	
2	0	0	0	0	525	
3	0	0	0	0	564	
4	0	0	0	0	570	
5	0	0	0	0	580	
6	0	0	0	0	540	
7	0	0	0	0	427	
8	0	0	0	0	611	
9	0	0	0	0	608	
10	0	0	0	0	613	
11	0	0	0	0	517	
12	0	0	0	0	373	
13	0	0	0	0	347	
14	0	0	0	0	764	
15	0	0	0	0	676	
0	0	0	0	0	521	
1	0	0	0	0	546	
2	0	0	0	0	419	
3	0	0	0	0	383	
4	0	0	0	0	389	
5	0	0	0	0	308	
6	0	0	0	0	218	
7	0	0	0	0	452	
8	0	0	0	0	764	
9	0	0	0	0	660	
10	0	0	0	0	565	
11	0	0	0	0	440	
12	0	0	0	0	582	
13	0	0	0	0	779	
14	0	0	0	0	600	
15	0	0	0	0	327	
0	0	0	0	0	503	
1	0	0	0	0	580	
2	0	0	0	0	512	
3	0	0	0	0	342	
4	0	0	0	0	275	
5	0	0	0	0	549	
6	0	0	0	0	525	
7	0	0	0	0	552	
8	0	0	0	0	641	
9	0	0	0	0	681	
10	0	0	0	0	559	
11	0	0	0	0	449	
12	0	0	0	0	275	
13	0	0	0	0	429	
14	0	0	0	0	569	
15	0	0	0	0	478	
0	0	0	0	0	356	
1	0	0	0	0	339	
2	0	0	0	0	454	
3	0	0	0	0	726	
4	0	0	0	0	583	
5	0	0	0	0	857	
6	0	0	0	0	838	
7	0	0	0	0	616	
8	0	0	0	0	470	
9	0	0	0	0	342	
10	0	0	0	0	408	
11	0	0	0	0	447	
12	0	0	0	0	473	
13	0	0	0	0	377	
14	0	0	0	0	414	
15	0	0	0	0	371	
0	0	0	0	0	443	
1	0	0	0	0	493	
2	0	0	0	0	493	
3	0	0	0	0	487	
4	0	0	0	0	479	
5	0	0	0	0	519	
6	0	0	0	0	436	
7	0	0	0	0	365	
8	0	0	0	0	566	
9	0	0	0	0	916	
10	0	0	0	0	755	
11	0	0	0	0	541	
12	0	0	0	0	638	
13	0	0	0	0	789	
14	0	0	0	0	555	
15	0	0	0	0	236	
0	0	0	0	0	252	
1	0	0	0	0	476	
2	0	0	0	0	543	
3	0	0	0	0	656	
4	0	0	0	0	646	
5	0	0	0	0	485	
6	0	0	0	0	434	
7	0	0	0	0	331	
8	0	0	0	0	429	
9	0	0	0	0	497	
10	0	0	0	0	459	
11	0	0	0	0	540	
12	0	0	0	0	356	
13	0	0	0	0	387	
14	0	0	0	0	371	
15	0	0	0	0	328	
0	0	0	0	0	714	
1	0	0	0	0	880	
2	0	0	0	0	859	
3	0	0	0	0	494	
4	0	0	0	0	558	
5	0	0	0	0	409	
6	0	0	0	0	478	
7	0	0	0	0	574	
8	0	0	0	0	446	
9	0	0	0	0	605	
10	0	0	0	0	547	
11	0	0	0	0	427	
12	0	0	0	0	489	
13	0	0	0	0	444	
14	0	0	0	0	313	
15	0	0	0	0	439	
0	0	0	0	0	510	
1	0	0	0	0	613	
2	0	0	0	0	533	
3	0	0	0	0	451	
4	0	0	0	0	518	
5	0	0	0	0	396	
6	0	0	0	0	505	
7	0	0	0	0	428	
8	0	0	0	0	447	
9	0	0	0	0	701	
10	0	0	0	0	753	
11	0	0	0	0	637	
12	0	0	0	0	459	
13	0	0	0	0	484	
14	0	0	0	0	578	
15	0	0	0	0	526	
0	0	0	0	0	387	
1	0	0	0	0	397	
2	0	0	0	0	501	
3	0	0	0	0	445	
4	0	0	0	0	442	
5	0	0	0	0	478	
6	0	0	0	0	451	
7	0	0	0	0	537	
8	0	0	0	0	488	
9	0	0	0	0	402	
10	0	0	0	0	688	
11	0	0	0	0	782	
12	0	0	0	0	640	
13	0	0	0	0	427	
14	0	0	0	0	301	
15	0	0	0	0	509	
0	0	0	0	0	695	
1	0	0	0	0	514	
2	0	0	0	0	331	
3	0	0	0	0	391	
4	0	0	0	0	486	
5	0	0	0	0	643	
6	0	0	0	0	731	
7	0	0	0	0	660	
8	0	0	0	0	460	
9	0	0	0	0	252	
10	0	0	0	0	478	
11	0	0	0	0	625	
12	0	0	0	0	569	
13	0	0	0	0	423	
14	0	0	0	0	234	
15	0	0	0	0	134	
0	0	0	0	0	590	
1	0	0	0	0	879	
2	0	0	0	0	461	
3	0	0	0	0	319	
4	0	0	0	0	549	
5	0	0	0	0	757	
6	0	0	0	0	762	
7	0	0	0	0	761	
8	0	0	0	0	480	
9	0	0	0	0	373	
10	0	0	0	0	352	
11	0	0	0	0	335	
12	0	0	0	0	788	
13	0	0	0	0	673	
14	0	0	0	0	300	
15	0	0	0	0	111	
0	0	0	0	0	470	
1	0	0	0	0	837	
2	0	0	0	0	679	
3	0	0	0	0	435	
4	0	0	0	0	325	
5	0	0	0	0	496	
6	0	0	0	0	578	
7	0	0	0	0	521	
8	0	0	0	0	663	
9	0	0	0	0	419	
10	0	0	0	0	302	
11	0	0	0	0	497	
12	0	0	0	0	560	
13	0	0	0	0	445	
14	0	0	0	0	457	
15	0	0	0	0	343	
0	0	0	0	0	569	
1	0	0	0	0	658	
2	0	0	0	0	554	
3	0	0	0	0	453	
4	0	0	0	0	465	
5	0	0	0	0	970	
6	0	0	0	0	804	
7	0	0	0	0	417	
8	0	0	0	0	328	
9	0	0	0	0	473	
10	0	0	0	0	476	
11	0	0	0	0	477	
12	0	0	0	0	380	
13	0	0	0	0	315	
14	0	0	0	0	330	
15	0	0	0	0	387	
0	0	0	0	0	625	
1	0	0	0	0	633	
2	0	0	0	0	531	
3	0	0	0	0	426	
4	0	0	0	0	411	
5	0	0	0	0	416	
6	0	0	0	0	708	
7	0	0	0	0	734	
8	0	0	0	0	566	
9	0	0	0	0	492	
10	0	0	0	0	630	
11	0	0	0	0	416	
12	0	0	0	0	487	
13	0	0	0	0	646	
14	0	0	0	0	641	
15	0	0	0	0	454	
0	0	0	0	0	457	
1	0	0	0	0	433	
2	0	0	0	0	464	
3	0	0	0	0	375	
4	0	0	0	0	743	
5	0	0	0	0	776	
6	0	0	0	0	462	
7	0	0	0	0	373	
8	0	0	0	0	195	
9	0	0	0	0	477	
10	0	0	0	0	375	
11	0	0	0	0	780	
12	0	0	0	0	513	
13	0	0	0	0	383	
14	0	0	0	0	326	
15	0	0	0	0	585	
0	0	0	0	0	819	
1	0	0	0	0	637	
2	0	0	0	0	391	
3	0	0	0	0	374	
4	0	0	0	0	423	
5	0	0	0	0	624	
6	0	0	0	0	598	
7	0	0	0	0	682	
8	0	0	0	0	587	
9	0	0	0	0	479	
10	0	0	0	0	325	
11	0	0	0	0	346	
12	0	0	0	0	537	
13	0	0	0	0	741	
14	0	0	0	0	357	
15	0	0	0	0	339	
0	0	0	0	0	556	
1	0	0	0	0	668	
2	0	0	0	0	492	
3	0	0	0	0	478	
4	0	0	0	0	479	
5	0	0	0	0	402	
6	0	0	0	0	327	
7	0	0	0	0	572	
8	0	0	0	0	526	
9	0	0	0	0	566	
10	0	0	0	0	371	
11	0	0	0	0	363	
12	0	0	0	0	649	
13	0	0	0	0	727	
14	0	0	0	0	543	
15	0	0	0	0	544	
0	0	0	0	0	525	
1	0	0	0	0	466	
2	0	0	0	0	585	
3	0	0	0	0	704	
4	0	0	0	0	330	
5	0	0	0	0	490	
6	0	0	0	0	627	
7	0	0	0	0	283	
8	0	0	0	0	494	
9	0	0	0	0	694	
10	0	0	0	0	504	
11	0	0	0	0	635	
12	0	0	0	0	619	
13	0	0	0	0	557	
14	0	0	0	0	553	
15	0	0	0	0	474	
0	0	0	0	0	281	
1	0	0	0	0	324	
2	0	0	0	0	541	
3	0	0	0	0	589	
4	0	0	0	0	799	
5	0	0	0	0	732	
6	0	0	0	0	323	
7	0	0	0	0	153	
8	0	0	0	0	330	
9	0	0	0	0	449	
10	0	0	0	0	522	
11	0	0	0	0	685	
12	0	0	0	0	698	
13	0	0	0	0	423	
14	0	0	0	0	373	
15	0	0	0	0	597	
0	0	0	0	0	885	
1	0	0	0	0	890	
2	0	0	0	0	581	
3	0	0	0	0	19	
4	0	0	0	0	132	
5	0	0	0	0	185	
6	0	0	0	0	281	
7	0	0	0	0	761	
8	0	0	0	0	551	
9	0	0	0	0	473	
10	0	0	0	0	687	
11	0	0	0	0	674	
12	0	0	0	0	493	
13	0	0	0	0	543	
14	0	0	0	0	597	
15	0	0	0	0	451	
0	0	0	0	0	323	
1	0	0	0	0	480	
2	0	0	0	0	450	
3	0	0	0	0	244	
4	0	0	0	0	640	
5	0	0	0	0	822	
6	0	0	0	0	793	
7	0	0	0	0	836	
8	0	0	0	0	447	
9	0	0	0	0	207	
10	0	0	0	0	498	
11	0	0	0	0	514	
12	0	0	0	0	542	
13	0	0	0	0	195	
14	0	0	0	0	289	
15	0	0	0	0	389	
0	0	0	0	0	736	
1	0	0	0	0	755	
2	0	0	0	0	535	
3	0	0	0	0	452	
4	0	0	0	0	852	
5	0	0	0	0	747	
6	0	0	0	0	351	
7	0	0	0	0	403	
8	0	0	0	0	380	
9	0	0	0	0	412	
10	0	0	0	0	410	
11	0	0	0	0	536	
12	0	0	0	0	445	
13	0	0	0	0	256	
14	0	0	0	0	460	
15	0	0	0	0	801	
0	0	0	0	0	729	
1	0	0	0	0	542	
2	0	0	0	0	422	
3	0	0	0	0	411	
4	0	0	0	0	676	
5	0	0	0	0	668	
6	0	0	0	0	627	
7	0	0	0	0	404	
8	0	0	0	0	365	
9	0	0	0	0	43	
10	0	0	0	0	375	
11	0	0	0	0	821	
12	0	0	0	0	932	
13	0	0	0	0	435	
14	0	0	0	0	585	
15	0	0	0	0	551	
0	0	0	0	0	414	
1	0	0	0	0	297	
2	0	0	0	0	435	
3	0	0	0	0	415	
4	0	0	0	0	595	
5	0	0	0	0	647	
6	0	0	0	0	579	
7	0	0	0	0	594	
8	0	0	0	0	537	
9	0	0	0	0	359	
10	0	0	0	0	559	
11	0	0	0	0	580	
12	0	0	0	0	508	
13	0	0	0	0	625	
14	0	0	0	0	645	
15	0	0	0	0	543	
0	0	0	0	0	525	
1	0	0	0	0	403	
2	0	0	0	0	174	
3	0	0	0	0	368	
4	0	0	0	0	654	
5	0	0	0	0	690	
6	0	0	0	0	570	
7	0	0	0	0	431	
8	0	0	0	0	403	
9	0	0	0	0	302	
10	0	0	0	0	227	
11	0	0	0	0	370	
12	0	0	0	0	764	
13	0	0	0	0	783	
14	0	0	0	0	553	
15	0	0	0	0	524	
0	0	0	0	0	604	
1	0	0	0	0	565	
2	0	0	0	0	506	
3	0	0	0	0	791	
4	0	0	0	0	530	
5	0	0	0	0	226	
6	0	0	0	0	256	
7	0	0	0	0	383	
8	0	0	0	0	623	
9	0	0	0	0	625	
10	0	0	0	0	599	
11	0	0	0	0	564	
12	0	0	0	0	625	
13	0	0	0	0	792	
14	0	0	0	0	828	
15	0	0	0	0	439	
0	0	0	0	0	211	
1	0	0	0	0	193	
2	0	0	0	0	339	
3	0	0	0	0	0	
4	0	0	0	0	532	
5	0	0	0	0	600	
6	0	0	0	0	513	
7	0	0	0	0	998	
8	0	0	0	0	894	
9	0	0	0	0	470	
10	0	0	0	0	304	
11	0	0	0	0	487	
12	0	0	0	0	567	
13	0	0	0	0	427	
14	0	0	0	0	373	
15	0	0	0	0	506	
0	0	0	0	0	540	
1	0	0	0	0	356	
2	0	0	0	0	341	
3	0	0	0	0	561	
4	0	0	0	0	585	
5	0	0	0	0	657	
6	0	0	0	0	587	
7	0	0	0	0	482	
8	0	0	0	0	438	
9	0	0	0	0	514	
10	0	0	0	0	528	
11	0	0	0	0	429	
12	0	0	0	0	692	
13	0	0	0	0	942	
14	0	0	0	0	597	
15	0	0	0	0	383	
0	0	0	0	0	147	
1	0	0	0	0	344	
2	0	0	0	0	553	
3	0	0	0	0	496	
4	0	0	0	0	300	
5	0	0	0	0	312	
6	0	0	0	0	737	
7	0	0	0	0	798	
8	0	0	0	0	687	
9	0	0	0	0	463	
10	0	0	0	0	483	
11	0	0	0	0	368	
12	0	0	0	0	631	
13	0	0	0	0	608	
14	0	0	0	0	566	
15	0	0	0	0	707	
0	0	0	0	0	617	
1	0	0	0	0	484	
2	0	0	0	0	346	
3	0	0	0	0	254	
4	0	0	0	0	372	
5	0	0	0	0	337	
6	0	0	0	0	133	
7	0	0	0	0	760	
8	0	0	0	0	799	
9	0	0	0	0	550	
10	0	0	0	0	537	
11	0	0	0	0	464	
12	0	0	0	0	531	
13	0	0	0	0	625	
14	0	0	0	0	463	
15	0	0	0	0	534	
0	0	0	0	0	684	
1	0	0	0	0	694	
2	0	0	0	0	514	
3	0	0	0	0	490	
4	0	0	0	0	388	
5	0	0	0	0	532	
6	0	0	0	0	131	
7	0	0	0	0	219	
8	0	0	0	0	285	
9	0	0	0	0	523	
10	0	0	0	0	918	
11	0	0	0	0	716	
12	0	0	0	0	471	
13	0	0	0	0	369	
14	0	0	0	0	567	
15	0	0	0	0	467	
0	0	0	0	0	539	
1	0	0	0	0	801	
2	0	0	0	0	400	
3	0	0	0	0	378	
4	0	0	0	0	545	
5	0	0	0	0	684	
6	0	0	0	0	430	
7	0	0	0	0	330	
8	0	0	0	0	678	
9	0	0	0	0	700	
10	0	0	0	0	353	
11	0	0	0	0	512	
12	0	0	0	0	577	
13	0	0	0	0	525	
14	0	0	0	0	491	
15	0	0	0	0	346	
0	0	0	0	0	340	
1	0	0	0	0	438	
2	0	0	0	0	705	
3	0	0	0	0	706	
4	0	0	0	0	284	
5	0	0	0	0	357	
6	0	0	0	0	661	
7	0	0	0	0	649	
8	0	0	0	0	353	
9	0	0	0	0	434	
10	0	0	0	0	461	
11	0	0	0	0	643	
12	0	0	0	0	732	
13	0	0	0	0	638	
14	0	0	0	0	455	
15	0	0	0	0	285	
0	0	0	0	0	567	
1	0	0	0	0	700	
2	0	0	0	0	412	
3	0	0	0	0	674	
4	0	0	0	0	527	
5	0	0	0	0	471	
6	0	0	0	0	146	
7	0	0	0	0	221	
8	0	0	0	0	403	
9	0	0	0	0	689	
10	0	0	0	0	936	
11	0	0	0	0	472	
12	0	0	0	0	438	
13	0	0	0	0	574	
14	0	0	0	0	621	
15	0	0	0	0	506	
0	0	0	0	0	569	
1	0	0	0	0	563	
2	0	0	0	0	175	
3	0	0	0	0	276	
4	0	0	0	0	622	
5	0	0	0	0	825	
6	0	0	0	0	632	
7	0	0	0	0	454	
8	0	0	0	0	440	
9	0	0	0	0	538	
10	0	0	0	0	545	
11	0	0	0	0	505	
12	0	0	0	0	396	
13	0	0	0	0	413	
14	0	0	0	0	428	
15	0	0	0	0	624	
0	0	0	0	0	696	
1	0	0	0	0	578	
2	0	0	0	0	460	
3	0	0	0	0	482	
4	0	0	0	0	664	
5	0	0	0	0	521	
6	0	0	0	0	310	
7	0	0	0	0	369	
8	0	0	0	0	307	
9	0	0	0	0	475	
10	0	0	0	0	473	
11	0	0	0	0	560	
12	0	0	0	0	601	
13	0	0	0	0	574	
14	0	0	0	0	523	
15	0	0	0	0	365	
0	0	0	0	0	475	
1	0	0	0	0	713	
2	0	0	0	0	766	
3	0	0	0	0	583	
4	0	0	0	0	446	
5	0	0	0	0	552	
6	0	0	0	0	480	
7	0	0	0	0	339	
8	0	0	0	0	588	
9	0	0	0	0	657	
10	0	0	0	0	447	
11	0	0	0	0	130	
12	0	0	0	0	646	
13	0	0	0	0	655	
14	0	0	0	0	555	
15	0	0	0	0	511	
0	0	0	0	0	409	
1	0	0	0	0	380	
2	0	0	0	0	481	
3	0	0	0	0	545	
4	0	0	0	0	458	
5	0	0	0	0	213	
6	0	0	0	0	767	
7	0	0	0	0	824	
8	0	0	0	0	449	
9	0	0	0	0	473	
10	0	0	0	0	774	
11	0	0	0	0	602	
12	0	0	0	0	472	
13	0	0	0	0	387	
14	0	0	0	0	498	
15	0	0	0	0	470	
0	0	0	0	0	446	
1	0	0	0	0	591	
2	0	0	0	0	349	
3	0	0	0	0	220	
4	0	0	0	0	358	
5	0	0	0	0	664	
6	0	0	0	0	644	
7	0	0	0	0	508	
8	0	0	0	0	523	
9	0	0	0	0	721	
10	0	0	0	0	601	
11	0	0	0	0	505	
12	0	0	0	0	363	
13	0	0	0	0	547	
14	0	0	0	0	385	
15	0	0	0	0	447	
0	0	0	0	0	628	
1	0	0	0	0	659	
2	0	0	0	0	751	
3	0	0	0	0	534	
4	0	0	0	0	397	
5	0	0	0	0	415	
6	0	0	0	0	656	
7	0	0	0	0	525	
8	0	0	0	0	465	
9	0	0	0	0	287	
10	0	0	0	0	319	
11	0	0	0	0	359	
12	0	0	0	0	451	
13	0	0	0	0	450	
14	0	0	0	0	504	
15	0	0	0	0	495	
0	0	0	0	0	675	
1	0	0	0	0	663	
2	0	0	0	0	749	
3	0	0	0	0	589	
4	0	0	0	0	513	
5	0	0	0	0	203	
6	0	0	0	0	167	
7	0	0	0	0	359	
8	0	0	0	0	985	
9	0	0	0	0	772	
10	0	0	0	0	502	
11	0	0	0	0	452	
12	0	0	0	0	445	
13	0	0	0	0	583	
14	0	0	0	0	542	
15	0	0	0	0	437	
0	0	0	0	0	519	
1	0	0	0	0	589	
2	0	0	0	0	460	
3	0	0	0	0	427	
4	0	0	0	0	611	
5	0	0	0	0	608	
6	0	0	0	0	518	
7	0	0	0	0	230	
8	0	0	0	0	364	
9	0	0	0	0	483	
10	0	0	0	0	478	
11	0	0	0	0	459	
12	0	0	0	0	452	
13	0	0	0	0	593	
14	0	0	0	0	715	
15	0	0	0	0	641	
0	0	0	0	0	238	
1	0	0	0	0	446	
2	0	0	0	0	658	
3	0	0	0	0	852	
4	0	0	0	0	576	
5	0	0	0	0	359	
6	0	0	0	0	444	
7	0	0	0	0	530	
8	0	0	0	0	417	
9	0	0	0	0	381	
10	0	0	0	0	524	
11	0	0	0	0	627	
12	0	0	0	0	445	
13	0	0	0	0	539	
14	0	0	0	0	606	
15	0	0	0	0	327	
0	0	0	0	0	527	
1	0	0	0	0	687	
2	0	0	0	0	496	
3	0	0	0	0	451	
4	0	0	0	0	586	
5	0	0	0	0	557	
6	0	0	0	0	359	
7	0	0	0	0	556	
8	0	0	0	0	522	
9	0	0	0	0	408	
10	0	0	0	0	633	
11	0	0	0	0	487	
12	0	0	0	0	560	
13	0	0	0	0	537	
14	0	0	0	0	404	
15	0	0	0	0	337	
0	0	0	0	0	342	
1	0	0	0	0	608	
2	0	0	0	0	742	
3	0	0	0	0	636	
4	0	0	0	0	430	
5	0	0	0	0	410	
6	0	0	0	0	602	
7	0	0	0	0	566	
8	0	0	0	0	547	
9	0	0	0	0	299	
10	0	0	0	0	562	
11	0	0	0	0	657	
12	0	0	0	0	483	
13	0	0	0	0	401	
14	0	0	0	0	449	
15	0	0	0	0	609	
0	0	0	0	0	515	
1	0	0	0	0	487	
2	0	0	0	0	477	
3	0	0	0	0	531	
4	0	0	0	0	732	
5	0	0	0	0	625	
6	0	0	0	0	278	
7	0	0	0	0	344	
8	0	0	0	0	543	
9	0	0	0	0	653	
10	0	0	0	0	519	
11	0	0	0	0	385	
12	0	0	0	0	331	
13	0	0	0	0	445	
14	0	0	0	0	314	
15	0	0	0	0	544	
0	0	0	0	0	1022	
1	0	0	0	0	643	
2	0	0	0	0	357	
3	0	0	0	0	259	
4	0	0	0	0	430	
5	0	0	0	0	671	
6	0	0	0	0	665	
7	0	0	0	0	271	
8	0	0	0	0	540	
9	0	0	0	0	1022	
10	0	0	0	0	868	
11	0	0	0	0	660	
12	0	0	0	0	234	
13	0	0	0	0	204	
14	0	0	0	0	397	
15	0	0	0	0	442	
0	0	0	0	0	477	
1	0	0	0	0	164	
2	0	0	0	0	380	
3	0	0	0	0	472	
4	0	0	0	0	522	
5	0	0	0	0	667	
6	0	0	0	0	600	
7	0	0	0	0	535	
8	0	0	0	0	430	
9	0	0	0	0	728	
10	0	0	0	0	481	
11	0	0	0	0	215	
12	0	0	0	0	452	
13	0	0	0	0	849	
14	0	0	0	0	808	
15	0	0	0	0	421	
0	0	0	0	0	230	
1	0	0	0	0	480	
2	0	0	0	0	937	
3	0	0	0	0	707	
4	0	0	0	0	265	
5	0	0	0	0	167	
6	0	0	0	0	323	
7	0	0	0	0	728	
8	0	0	0	0	633	
9	0	0	0	0	347	
10	0	0	0	0	406	
11	0	0	0	0	528	
12	0	0	0	0	587	
13	0	0	0	0	483	
14	0	0	0	0	438	
15	0	0	0	0	611	
0	0	0	0	0	1022	
1	0	0	0	0	570	
2	0	0	0	0	376	
3	0	0	0	0	394	
4	0	0	0	0	445	
5	0	0	0	0	431	
6	0	0	0	0	440	
7	0	0	0	0	498	
8	0	0	0	0	367	
9	0	0	0	0	467	
10	0	0	0	0	590	
11	0	0	0	0	547	
12	0	0	0	0	327	
13	0	0	0	0	423	
14	0	0	0	0	492	
15	0	0	0	0	556	
0	0	0	0	0	648	
1	0	0	0	0	469	
2	0	0	0	0	471	
3	0	0	0	0	511	
4	0	0	0	0	912	
5	0	0	0	0	733	
6	0	0	0	0	380	
7	0	0	0	0	440	
8	0	0	0	0	368	
9	0	0	0	0	478	
10	0	0	0	0	719	
11	0	0	0	0	742	
12	0	0	0	0	523	
13	0	0	0	0	323	
14	0	0	0	0	209	
15	0	0	0	0	242	
0	0	0	0	0	479	
1	0	0	0	0	622	
2	0	0	0	0	644	
3	0	0	0	0	575	
4	0	0	0	0	536	
5	0	0	0	0	388	
6	0	0	0	0	438	
7	0	0	0	0	458	
8	0	0	0	0	525	
9	0	0	0	0	677	
10	0	0	0	0	742	
11	0	0	0	0	420	
12	0	0	0	0	400	
13	0	0	0	0	545	
14	0	0	0	0	599	
15	0	0	0	0	568	
0	0	0	0	0	577	
1	0	0	0	0	423	
2	0	0	0	0	345	
3	0	0	0	0	409	
4	0	0	0	0	558	
5	0	0	0	0	519	
6	0	0	0	0	521	
7	0	0	0	0	656	
8	0	0	0	0	595	
9	0	0	0	0	631	
10	0	0	0	0	448	
11	0	0	0	0	381	
12	0	0	0	0	373	
13	0	0	0	0	463	
14	0	0	0	0	568	
15	0	0	0	0	615	
0	0	0	0	0	732	
1	0	0	0	0	437	
2	0	0	0	0	395	
3	0	0	0	0	461	
4	0	0	0	0	389	
5	0	0	0	0	515	
6	0	0	0	0	715	
7	0	0	0	0	592	
8	0	0	0	0	334	
9	0	0	0	0	511	
10	0	0	0	0	537	
11	0	0	0	0	241	
12	0	0	0	0	953	
13	0	0	0	0	685	
14	0	0	0	0	500	
15	0	0	0	0	253	
0	0	0	0	0	390	
1	0	0	0	0	699	
2	0	0	0	0	428	
3	0	0	0	0	225	
4	0	0	0	0	634	
5	0	0	0	0	748	
6	0	0	0	0	619	
7	0	0	0	0	438	
8	0	0	0	0	402	
9	0	0	0	0	545	
10	0	0	0	0	597	
11	0	0	0	0	523	
12	0	0	0	0	495	
13	0	0	0	0	475	
14	0	0	0	0	426	
15	0	0	0	0	447	
0	0	0	0	0	572	
1	0	0	0	0	502	
2	0	0	0	0	490	
3	0	0	0	0	487	
4	0	0	0	0	462	
5	0	0	0	0	569	
6	0	0	0	0	511	
7	0	0	0	0	433	
8	0	0	0	0	571	
9	0	0	0	0	602	
10	0	0	0	0	467	
11	0	0	0	0	360	
12	0	0	0	0	416	
13	0	0	0	0	397	
14	0	0	0	0	651	
15	0	0	0	0	704	
0	0	0	0	0	690	
1	0	0	0	0	532	
2	0	0	0	0	503	
3	0	0	0	0	445	
4	0	0	0	0	531	
5	0	0	0	0	407	
6	0	0	0	0	382	
7	0	0	0	0	654	
8	0	0	0	0	414	
9	0	0	0	0	577	
10	0	0	0	0	731	
11	0	0	0	0	722	
12	0	0	0	0	599	
13	0	0	0	0	326	
14	0	0	0	0	400	
15	0	0	0	0	465	
0	0	0	0	0	593	
1	0	0	0	0	428	
2	0	0	0	0	388	
3	0	0	0	0	306	
4	0	0	0	0	352	
5	0	0	0	0	521	
6	0	0	0	0	502	
7	0	0	0	0	673	
8	0	0	0	0	570	
9	0	0	0	0	558	
10	0	0	0	0	574	
11	0	0	0	0	621	
12	0	0	0	0	653	
13	0	0	0	0	380	
14	0	0	0	0	410	
15	0	0	0	0	388	
0	0	0	0	0	568	
1	0	0	0	0	623	
2	0	0	0	0	547	
3	0	0	0	0	439	
4	0	0	0	0	423	
5	0	0	0	0	529	
6	0	0	0	0	504	
7	0	0	0	0	570	
8	0	0	0	0	548	
9	0	0	0	0	526	
10	0	0	0	0	504	
11	0	0	0	0	499	
12	0	0	0	0	513	
13	0	0	0	0	491	
14	0	0	0	0	519	
15	0	0	0	0	544	
0	0	0	0	0	547	
1	0	0	0	0	541	
2	0	0	0	0	464	
3	0	0	0	0	487	
4	0	0	0	0	460	
5	0	0	0	0	574	
6	0	0	0	0	612	
7	0	0	0	0	581	
8	0	0	0	0	376	
9	0	0	0	0	269	
10	0	0	0	0	396	
11	0	0	0	0	461	
12	0	0	0	0	639	
13	0	0	0	0	553	
14	0	0	0	0	580	
15	0	0	0	0	444	
0	0	0	0	0	587	
1	0	0	0	0	560	
2	0	0	0	0	475	
3	0	0	0	0	583	
4	0	0	0	0	638	
5	0	0	0	0	573	
6	0	0	0	0	474	
7	0	0	0	0	472	
8	0	0	0	0	469	
9	0	0	0	0	480	
10	0	0	0	0	507	
11	0	0	0	0	482	
12	0	0	0	0	483	
13	0	0	0	0	483	
14	0	0	0	0	470	
15	0	0	0	0	492	
0	0	0	0	0	481	
1	0	0	0	0	470	
2	0	0	0	0	467	
3	0	0	0	0	493	
4	0	0	0	0	679	
5	0	0	0	0	658	
6	0	0	0	0	437	
7	0	0	0	0	479	
8	0	0	0	0	659	
9	0	0	0	0	523	
10	0	0	0	0	376	
11	0	0	0	0	415	
12	0	0	0	0	590	
13	0	0	0	0	630	
14	0	0	0	0	657	
15	0	0	0	0	645	
0	0	0	0	0	481	
1	0	0	0	0	241	
2	0	0	0	0	289	
3	0	0	0	0	456	
4	0	0	0	0	556	
5	0	0	0	0	531	
6	0	0	0	0	519	
7	0	0	0	0	505	
8	0	0	0	0	459	
9	0	0	0	0	547	
10	0	0	0	0	518	
11	0	0	0	0	560	
12	0	0	0	0	551	
13	0	0	0	0	490	
14	0	0	0	0	511	
15	0	0	0	0	567	
0	0	0	0	0	526	
1	0	0	0	0	364	
2	0	0	0	0	444	
3	0	0	0	0	571	
4	0	0	0	0	561	
5	0	0	0	0	598	
6	0	0	0	0	531	
7	0	0	0	0	643	
8	0	0	0	0	520	
9	0	0	0	0	365	
10	0	0	0	0	551	
11	0	0	0	0	502	
12	0	0	0	0	347	
13	0	0	0	0	600	
14	0	0	0	0	564	
15	0	0	0	0	468	
0	0	0	0	0	506	
1	0	0	0	0	492	
2	0	0	0	0	468	
3	0	0	0	0	450	
4	0	0	0	0	453	
5	0	0	0	0	510	
6	0	0	0	0	566	
7	0	0	0	0	552	
8	0	0	0	0	571	
9	0	0	0	0	571	
10	0	0	0	0	414	
11	0	0	0	0	353	
12	0	0	0	0	587	
13	0	0	0	0	652	
14	0	0	0	0	488	
15	0	0	0	0	541	
0	0	0	0	0	458	
1	0	0	0	0	485	
2	0	0	0	0	461	
3	0	0	0	0	711	
4	0	0	0	0	568	
5	0	0	0	0	458	
6	0	0	0	0	472	
7	0	0	0	0	540	
8	0	0	0	0	536	
9	0	0	0	0	505	
10	0	0	0	0	482	
11	0	0	0	0	474	
12	0	0	0	0	479	
13	0	0	0	0	480	
14	0	0	0	0	477	
15	0	0	0	0	497	
0	0	0	0	0	496	
1	0	0	0	0	496	
2	0	0	0	0	488	
3	0	0	0	0	539	
4	0	0	0	0	530	
5	0	0	0	0	533	
6	0	0	0	0	556	
7	0	0	0	0	519	
8	0	0	0	0	501	
9	0	0	0	0	497	
10	0	0	0	0	549	
11	0	0	0	0	514	
12	0	0	0	0	480	
13	0	0	0	0	523	
14	0	0	0	0	521	
15	0	0	0	0	475	
0	0	0	0	0	465	
1	0	0	0	0	470	
2	0	0	0	0	488	
3	0	0	0	0	492	
4	0	0	0	0	467	
5	0	0	0	0	521	
6	0	0	0	0	582	
7	0	0	0	0	612	
8	0	0	0	0	550	
9	0	0	0	0	500	
10	0	0	0	0	537	
11	0	0	0	0	452	
12	0	0	0	0	494	
13	0	0	0	0	552	
14	0	0	0	0	593	
15	0	0	0	0	601	
0	0	0	0	0	412	
1	0	0	0	0	487	
2	0	0	0	0	672	
3	0	0	0	0	537	
4	0	0	0	0	459	
5	0	0	0	0	382	
6	0	0	0	0	401	
7	0	0	0	0	435	
8	0	0	0	0	476	
9	0	0	0	0	500	
10	0	0	0	0	492	
11	0	0	0	0	531	
12	0	0	0	0	566	
13	0	0	0	0	520	
14	0	0	0	0	494	
15	0	0	0	0	550	
0	0	0	0	0	536	
1	0	0	0	0	532	
2	0	0	0	0	474	
3	0	0	0	0	453	
4	0	0	0	0	553	
5	0	0	0	0	609	
6	0	0	0	0	492	
7	0	0	0	0	392	
8	0	0	0	0	381	
9	0	0	0	0	463	
10	0	0	0	0	576	
11	0	0	0	0	575	
12	0	0	0	0	623	
13	0	0	0	0	728	
14	0	0	0	0	552	
15	0	0	0	0	480	
0	0	0	0	0	473	
1	0	0	0	0	488	
2	0	0	0	0	505	
3	0	0	0	0	500	
4	0	0	0	0	514	
5	0	0	0	0	491	
6	0	0	0	0	487	
7	0	0	0	0	487	
8	0	0	0	0	476	
9	0	0	0	0	502	
10	0	0	0	0	480	
11	0	0	0	0	505	
12	0	0	0	0	473	
13	0	0	0	0	513	
14	0	0	0	0	497	
15	0	0	0	0	526	
0	0	0	0	0	486	
1	0	0	0	0	424	
2	0	0	0	0	397	
3	0	0	0	0	536	
4	0	0	0	0	575	
5	0	0	0	0	689	
6	0	0	0	0	662	
7	0	0	0	0	510	
8	0	0	0	0	541	
9	0	0	0	0	520	
10	0	0	0	0	496	
11	0	0	0	0	497	
12	0	0	0	0	481	
13	0	0	0	0	468	
14	0	0	0	0	471	
15	0	0	0	0	474	
0	0	0	0	0	480	
1	0	0	0	0	497	
2	0	0	0	0	488	
3	0	0	0	0	495	
4	0	0	0	0	505	
5	0	0	0	0	510	
6	0	0	0	0	525	
7	0	0	0	0	519	
8	0	0	0	0	515	
9	0	0	0	0	508	
10	0	0	0	0	522	
11	0	0	0	0	529	
12	0	0	0	0	554	
13	0	0	0	0	541	
14	0	0	0	0	543	
15	0	0	0	0	501	
0	0	0	0	0	478	
1	0	0	0	0	505	
2	0	0	0	0	501	
3	0	0	0	0	498	
4	0	0	0	0	490	
5	0	0	0	0	468	
6	0	0	0	0	514	
7	0	0	0	0	523	
8	0	0	0	0	494	
9	0	0	0	0	477	
10	0	0	0	0	532	
11	0	0	0	0	539	
12	0	0	0	0	537	
13	0	0	0	0	520	
14	0	0	0	0	533	
15	0	0	0	0	524	
0	0	0	0	0	509	
1	0	0	0	0	508	
2	0	0	0	0	485	
3	0	0	0	0	537	
4	0	0	0	0	544	
5	0	0	0	0	506	
6	0	0	0	0	403	
7	0	0	0	0	539	
8	0	0	0	0	625	
9	0	0	0	0	586	
10	0	0	0	0	454	
11	0	0	0	0	462	
12	0	0	0	0	491	
13	0	0	0	0	502	
14	0	0	0	0	483	
15	0	0	0	0	514	
0	0	0	0	0	540	
1	0	0	0	0	513	
2	0	0	0	0	512	
3	0	0	0	0	541	
4	0	0	0	0	524	
5	0	0	0	0	499	
6	0	0	0	0	493	
7	0	0	0	0	497	
8	0	0	0	0	508	
9	0	0	0	0	497	
10	0	0	0	0	498	
11	0	0	0	0	500	
12	0	0	0	0	479	
13	0	0	0	0	480	
14	0	0	0	0	499	
15	0	0	0	0	519	
0	0	0	0	0	518	
1	0	0	0	0	520	
2	0	0	0	0	550	
3	0	0	0	0	518	
4	0	0	0	0	498	
5	0	0	0	0	512	
6	0	0	0	0	547	
7	0	0	0	0	529	
8	0	0	0	0	518	
9	0	0	0	0	510	
10	0	0	0	0	519	
11	0	0	0	0	519	
12	0	0	0	0	508	
13	0	0	0	0	496	
14	0	0	0	0	490	
15	0	0	0	0	486	
0	0	0	0	0	484	
1	0	0	0	0	487	
2	0	0	0	0	506	
3	0	0	0	0	511	
4	0	0	0	0	510	
5	0	0	0	0	522	
6	0	0	0	0	526	
7	0	0	0	0	535	
8	0	0	0	0	527	
9	0	0	0	0	542	
10	0	0	0	0	537	
11	0	0	0	0	494	
12	0	0	0	0	450	
13	0	0	0	0	569	
14	0	0	0	0	576	
15	0	0	0	0	510	
0	0	0	0	0	495	
1	0	0	0	0	466	
2	0	0	0	0	468	
3	0	0	0	0	470	
4	0	0	0	0	490	
5	0	0	0	0	506	
6	0	0	0	0	512	
7	0	0	0	0	515	
8	0	0	0	0	524	
9	0	0	0	0	542	
10	0	0	0	0	546	
11	0	0	0	0	536	
12	0	0	0	0	527	
13	0	0	0	0	535	
14	0	0	0	0	532	
15	0	0	0	0	521	
0	0	0	0	0	511	
1	0	0	0	0	504	
2	0	0	0	0	502	
3	0	0	0	0	500	
4	0	0	0	0	487	
5	0	0	0	0	494	
6	0	0	0	0	504	
7	0	0	0	0	473	
8	0	0	0	0	469	
9	0	0	0	0	477	
10	0	0	0	0	483	
11	0	0	0	0	490	
12	0	0	0	0	536	
13	0	0	0	0	563	
14	0	0	0	0	538	
15	0	0	0	0	523	
0	0	0	0	0	541	
1	0	0	0	0	542	
2	0	0	0	0	529	
3	0	0	0	0	515	
4	0	0	0	0	508	
5	0	0	0	0	523	
6	0	0	0	0	528	
7	0	0	0	0	508	
8	0	0	0	0	478	
9	0	0	0	0	469	
10	0	0	0	0	492	
11	0	0	0	0	492	
12	0	0	0	0	471	
13	0	0	0	0	488	
14	0	0	0	0	521	
15	0	0	0	0	529	
0	0	0	0	0	523	
1	0	0	0	0	515	
2	0	0	0	0	517	
3	0	0	0	0	507	
4	0	0	0	0	529	
5	0	0	0	0	494	
6	0	0	0	0	471	
7	0	0	0	0	479	
8	0	0	0	0	563	
9	0	0	0	0	627	
10	0	0	0	0	539	
11	0	0	0	0	515	
12	0	0	0	0	476	
13	0	0	0	0	511	
14	0	0	0	0	529	
15	0	0	0	0	507	
0	0	0	0	0	489	
1	0	0	0	0	504	
2	0	0	0	0	502	
3	0	0	0	0	491	
4	0	0	0	0	475	
5	0	0	0	0	491	
6	0	0	0	0	510	
7	0	0	0	0	514	
8	0	0	0	0	521	
9	0	0	0	0	536	
10	0	0	0	0	533	
11	0	0	0	0	524	
12	0	0	0	0	519	
13	0	0	0	0	513	
14	0	0	0	0	510	
15	0	0	0	0	501	
0	0	0	0	0	497	
1	0	0	0	0	492	
2	0	0	0	0	496	
3	0	0	0	0	490	
4	0	0	0	0	484	
5	0	0	0	0	495	
6	0	0	0	0	503	
7	0	0	0	0	519	
8	0	0	0	0	515	
9	0	0	0	0	525	
10	0	0	0	0	530	
11	0	0	0	0	526	
12	0	0	0	0	520	
13	0	0	0	0	524	
14	0	0	0	0	529	
15	0	0	0	0	524	
0	0	0	0	0	519	
1	0	0	0	0	509	
2	0	0	0	0	503	
3	0	0	0	0	510	
4	0	0	0	0	516	
5	0	0	0	0	505	
6	0	0	0	0	493	
7	0	0	0	0	491	
8	0	0	0	0	496	
9	0	0	0	0	494	
10	0	0	0	0	500	
11	0	0	0	0	512	
12	0	0	0	0	515	
13	0	0	0	0	517	
14	0	0	0	0	520	
15	0	0	0	0	518	
0	0	0	0	0	519	
1	0	0	0	0	524	
2	0	0	0	0	526	
3	0	0	0	0	534	
4	0	0	0	0	524	
5	0	0	0	0	516	
6	0	0	0	0	511	
7	0	0	0	0	508	
8	0	0	0	0	499	
9	0	0	0	0	502	
10	0	0	0	0	489	
11	0	0	0	0	495	
12	0	0	0	0	492	
13	0	0	0	0	495	
14	0	0	0	0	496	
15	0	0	0	0	504	
0	0	0	0	0	509	
1	0	0	0	0	516	
2	0	0	0	0	530	
3	0	0	0	0	534	
4	0	0	0	0	531	
5	0	0	0	0	527	
6	0	0	0	0	512	
7	0	0	0	0	502	
8	0	0	0	0	509	
9	0	0	0	0	524	
10	0	0	0	0	528	
11	0	0	0	0	503	
12	0	0	0	0	507	
13	0	0	0	0	506	
14	0	0	0	0	509	
15	0	0	0	0	489	
0	0	0	0	0	480	
1	0	0	0	0	493	
2	0	0	0	0	504	
3	0	0	0	0	502	
4	0	0	0	0	510	
5	0	0	0	0	518	
6	0	0	0	0	521	
7	0	0	0	0	520	
8	0	0	0	0	520	
9	0	0	0	0	527	
10	0	0	0	0	529	
11	0	0	0	0	519	
12	0	0	0	0	517	
13	0	0	0	0	523	
14	0	0	0	0	516	
15	0	0	0	0	514	
0	0	0	0	0	504	
1	0	0	0	0	499	
2	0	0	0	0	499	
3	0	0	0	0	484	
4	0	0	0	0	480	
5	0	0	0	0	491	
6	0	0	0	0	503	
7	0	0	0	0	510	
8	0	0	0	0	520	
9	0	0	0	0	523	
10	0	0	0	0	519	
11	0	0	0	0	518	
12	0	0	0	0	529	
13	0	0	0	0	533	
14	0	0	0	0	532	
15	0	0	0	0	527	
0	0	0	0	0	520	
1	0	0	0	0	513	
2	0	0	0	0	504	
3	0	0	0	0	499	
4	0	0	0	0	498	
5	0	0	0	0	493	
6	0	0	0	0	487	
7	0	0	0	0	479	
8	0	0	0	0	483	
9	0	0	0	0	501	
10	0	0	0	0	508	
11	0	0	0	0	513	
12	0	0	0	0	526	
13	0	0	0	0	534	
14	0	0	0	0	537	
15	0	0	0	0	530	
0	0	0	0	0	523	
1	0	0	0	0	524	
2	0	0	0	0	526	
3	0	0	0	0	522	
4	0	0	0	0	516	
5	0	0	0	0	510	
6	0	0	0	0	510	
7	0	0	0	0	503	
8	0	0	0	0	501	
9	0	0	0	0	495	
10	0	0	0	0	495	
11	0	0	0	0	489	
12	0	0	0	0	488	
13	0	0	0	0	494	
14	0	0	0	0	498	
15	0	0	0	0	505	
0	0	0	0	0	510	
1	0	0	0	0	513	
2	0	0	0	0	521	
3	0	0	0	0	524	
4	0	0	0	0	525	
5	0	0	0	0	529	
6	0	0	0	0	533	
7	0	0	0	0	527	
8	0	0	0	0	525	
9	0	0	0	0	528	
10	0	0	0	0	514	
11	0	0	0	0	505	
12	0	0	0	0	502	
13	0	0	0	0	505	
14	0	0	0	0	491	
15	0	0	0	0	483	
0	0	0	0	0	484	
1	0	0	0	0	496	
2	0	0	0	0	492	
3	0	0	0	0	498	
4	0	0	0	0	524	
5	0	0	0	0	534	
6	0	0	0	0	529	
7	0	0	0	0	526	
8	0	0	0	0	522	
9	0	0	0	0	527	
10	0	0	0	0	528	
11	0	0	0	0	522	
12	0	0	0	0	516	
13	0	0	0	0	513	
14	0	0	0	0	507	
15	0	0	0	0	503	
0	0	0	0	0	496	
1	0	0	0	0	493	
2	0	0	0	0	505	
3	0	0	0	0	502	
4	0	0	0	0	497	
5	0	0	0	0	492	
6	0	0	0	0	501	
7	0	0	0	0	505	
8	0	0	0	0	510	
9	0	0	0	0	518	
10	0	0	0	0	519	
11	0	0	0	0	526	
12	0	0	0	0	532	
13	0	0	0	0	533	
14	0	0	0	0	528	
15	0	0	0	0	521	
0	0	0	0	0	518	
1	0	0	0	0	512	
2	0	0	0	0	505	
3	0	0	0	0	501	
4	0	0	0	0	501	
5	0	0	0	0	500	
6	0	0	0	0	493	
7	0	0	0	0	485	
8	0	0	0	0	483	
9	0	0	0	0	495	
10	0	0	0	0	511	
11	0	0	0	0	513	
12	0	0	0	0	526	
13	0	0	0	0	529	
14	0	0	0	0	530	
15	0	0	0	0	522	
0	0	0	0	0	522	
1	0	0	0	0	521	
2	0	0	0	0	528	
3	0	0	0	0	528	
4	0	0	0	0	516	
5	0	0	0	0	500	
6	0	0	0	0	505	
7	0	0	0	0	507	
8	0	0	0	0	508	
9	0	0	0	0	503	
10	0	0	0	0	496	
11	0	0	0	0	488	
12	0	0	0	0	484	
13	0	0	0	0	484	
14	0	0	0	0	496	
15	0	0	0	0	504	
0	0	0	0	0	508	
1	0	0	0	0	515	
2	0	0	0	0	527	
3	0	0	0	0	527	
4	0	0	0	0	526	
5	0	0	0	0	534	
6	0	0	0	0	542	
7	0	0	0	0	532	
8	0	0	0	0	527	
9	0	0	0	0	520	
10	0	0	0	0	513	
11	0	0	0	0	507	
12	0	0	0	0	500	
13	0	0	0	0	495	
14	0	0	0	0	494	
15	0	0	0	0	490	
0	0	0	0	0	489	
1	0	0	0	0	499	
2	0	0	0	0	502	
3	0	0	0	0	507	
4	0	0	0	0	510	
5	0	0	0	0	514	
6	0	0	0	0	512	
7	0	0	0	0	515	
8	0	0	0	0	516	
9	0	0	0	0	524	
10	0	0	0	0	531	
11	0	0	0	0	525	
12	0	0	0	0	523	
13	0	0	0	0	519	
14	0	0	0	0	520	
15	0	0	0	0	511	
0	0	0	0	0	508	
1	0	0	0	0	504	
2	0	0	0	0	502	
3	0	0	0	0	494	
4	0	0	0	0	488	
5	0	0	0	0	494	
6	0	0	0	0	503	
7	0	0	0	0	511	
8	0	0	0	0	509	
9	0	0	0	0	508	
10	0	0	0	0	511	
11	0	0	0	0	510	
12	0	0	0	0	515	
13	0	0	0	0	527	
14	0	0	0	0	542	
15	0	0	0	0	533	
0	0	0	0	0	524	
1	0	0	0	0	515	
2	0	0	0	0	508	
3	0	0	0	0	503	
4	0	0	0	0	501	
5	0	0	0	0	501	
6	0	0	0	0	498	
7	0	0	0	0	494	
8	0	0	0	0	493	
9	0	0	0	0	495	
10	0	0	0	0	503	
11	0	0	0	0	507	
12	0	0	0	0	506	
13	0	0	0	0	518	
14	0	0	0	0	519	
15	0	0	0	0	519	
0	0	0	0	0	524	
1	0	0	0	0	535	
2	0	0	0	0	536	
3	0	0	0	0	525	
4	0	0	0	0	518	
5	0	0	0	0	512	
6	0	0	0	0	508	
7	0	0	0	0	505	
8	0	0	0	0	503	
9	0	0	0	0	499	
10	0	0	0	0	497	
11	0	0	0	0	493	
12	0	0	0	0	492	
13	0	0	0	0	495	
14	0	0	0	0	502	
15	0	0	0	0	501	
0	0	0	0	0	506	
1	0	0	0	0	515	
2	0	0	0	0	520	
3	0	0	0	0	529	
4	0	0	0	0	529	
5	0	0	0	0	531	
6	0	0	0	0	530	
7	0	0	0	0	526	
8	0	0	0	0	523	
9	0	0	0	0	513	
10	0	0	0	0	511	
11	0	0	0	0	505	
12	0	0	0	0	500	
13	0	0	0	0	496	
14	0	0	0	0	499	
15	0	0	0	0	492	
0	0	0	0	0	491	
1	0	0	0	0	495	
2	0	0	0	0	501	
3	0	0	0	0	506	
4	0	0	0	0	511	
5	0	0	0	0	514	
6	0	0	0	0	520	
7	0	0	0	0	523	
8	0	0	0	0	525	
9	0	0	0	0	533	
10	0	0	0	0	529	
11	0	0	0	0	520	
12	0	0	0	0	518	
13	0	0	0	0	514	
14	0	0	0	0	511	
15	0	0	0	0	507	
0	0	0	0	0	509	
1	0	0	0	0	508	
2	0	0	0	0	497	
3	0	0	0	0	492	
4	0	0	0	0	490	
5	0	0	0	0	494	
6	0	0	0	0	501	
7	0	0	0	0	496	
8	0	0	0	0	510	
9	0	0	0	0	520	
10	0	0	0	0	514	
11	0	0	0	0	517	
12	0	0	0	0	525	
13	0	0	0	0	528	
14	0	0	0	0	534	
15	0	0	0	0	531	
0	0	0	0	0	522	
1	0	0	0	0	514	
2	0	0	0	0	505	
3	0	0	0	0	506	
4	0	0	0	0	504	
5	0	0	0	0	500	
6	0	0	0	0	496	
7	0	0	0	0	493	
8	0	0	0	0	492	
9	0	0	0	0	496	
10	0	0	0	0	501	
11	0	0	0	0	508	
12	0	0	0	0	513	
13	0	0	0	0	513	
14	0	0	0	0	518	
15	0	0	0	0	521	
0	0	0	0	0	525	
1	0	0	0	0	528	
2	0	0	0	0	529	
3	0	0	0	0	527	
4	0	0	0	0	523	
5	0	0	0	0	518	
6	0	0	0	0	511	
7	0	0	0	0	506	
8	0	0	0	0	503	
9	0	0	0	0	500	
10	0	0	0	0	498	
11	0	0	0	0	492	
12	0	0	0	0	490	
13	0	0	0	0	494	
14	0	0	0	0	501	
15	0	0	0	0	506	
0	0	0	0	0	512	
1	0	0	0	0	518	
2	0	0	0	0	519	
3	0	0	0	0	520	
4	0	0	0	0	526	
5	0	0	0	0	531	
6	0	0	0	0	529	
7	0	0	0	0	524	
8	0	0	0	0	520	
9	0	0	0	0	514	
10	0	0	0	0	514	
11	0	0	0	0	504	
12	0	0	0	0	499	
13	0	0	0	0	504	
14	0	0	0	0	496	
15	0	0	0	0	491	
0	0	0	0	0	490	
1	0	0	0	0	498	
2	0	0	0	0	503	
3	0	0	0	0	504	
4	0	0	0	0	511	
5	0	0	0	0	515	
6	0	0	0	0	516	
7	0	0	0	0	525	
8	0	0	0	0	527	
9	0	0	0	0	530	
10	0	0	0	0	531	
11	0	0	0	0	525	
12	0	0	0	0	521	
13	0	0	0	0	518	
14	0	0	0	0	510	
15	0	0	0	0	505	
0	0	0	0	0	499	
1	0	0	0	0	495	
2	0	0	0	0	494	
3	0	0	0	0	490	
4	0	0	0	0	493	
5	0	0	0	0	498	
6	0	0	0	0	501	
7	0	0	0	0	506	
8	0	0	0	0	515	
9	0	0	0	0	519	
10	0	0	0	0	520	
11	0	0	0	0	519	
12	0	0	0	0	524	
13	0	0	0	0	532	
14	0	0	0	0	531	
15	0	0	0	0	525	
0	0	0	0	0	519	
1	0	0	0	0	511	
2	0	0	0	0	505	
3	0	0	0	0	505	
4	0	0	0	0	503	
5	0	0	0	0	503	
6	0	0	0	0	499	
7	0	0	0	0	493	
8	0	0	0	0	491	
9	0	0	0	0	494	
10	0	0	0	0	499	
11	0	0	0	0	502	
12	0	0	0	0	511	
13	0	0	0	0	519	
14	0	0	0	0	521	
15	0	0	0	0	519	
0	0	0	0	0	527	
1	0	0	0	0	534	
2	0	0	0	0	540	
3	0	0	0	0	525	
4	0	0	0	0	519	
5	0	0	0	0	515	
6	0	0	0	0	508	
7	0	0	0	0	504	
8	0	0	0	0	503	
9	0	0	0	0	495	
10	0	0	0	0	492	
11	0	0	0	0	492	
12	0	0	0	0	492	
13	0	0	0	0	498	
14	0	0	0	0	505	
15	0	0	0	0	504	
0	0	0	0	0	507	
1	0	0	0	0	508	
2	0	0	0	0	515	
3	0	0	0	0	524	
4	0	0	0	0	525	
5	0	0	0	0	529	
6	0	0	0	0	532	
7	0	0	0	0	531	
8	0	0	0	0	525	
9	0	0	0	0	518	
10	0	0	0	0	508	
11	0	0	0	0	508	
12	0	0	0	0	508	
13	0	0	0	0	503	
14	0	0	0	0	498	
15	0	0	0	0	491	
0	0	0	0	0	491	
1	0	0	0	0	493	
2	0	0	0	0	497	
3	0	0	0	0	504	
4	0	0	0	0	511	
5	0	0	0	0	514	
6	0	0	0	0	519	
7	0	0	0	0	524	
8	0	0	0	0	526	
9	0	0	0	0	530	
10	0	0	0	0	531	
11	0	0	0	0	523	
12	0	0	0	0	525	
13	0	0	0	0	520	
14	0	0	0	0	510	
15	0	0	0	0	504	
0	0	0	0	0	502	
1	0	0	0	0	498	
2	0	0	0	0	494	
3	0	0	0	0	488	
4	0	0	0	0	490	
5	0	0	0	0	497	
6	0	0	0	0	503	
7	0	0	0	0	506	
8	0	0	0	0	513	
9	0	0	0	0	517	
10	0	0	0	0	519	
11	0	0	0	0	524	
12	0	0	0	0	528	
13	0	0	0	0	529	
14	0	0	0	0	526	
15	0	0	0	0	526	
0	0	0	0	0	522	
1	0	0	0	0	519	
2	0	0	0	0	511	
3	0	0	0	0	509	
4	0	0	0	0	499	
5	0	0	0	0	492	
6	0	0	0	0	500	
7	0	0	0	0	489	
8	0	0	0	0	488	
9	0	0	0	0	497	
10	0	0	0	0	498	
11	0	0	0	0	505	
12	0	0	0	0	512	
13	0	0	0	0	518	
14	0	0	0	0	520	
15	0	0	0	0	517	
0	0	0	0	0	520	
1	0	0	0	0	534	
2	0	0	0	0	529	
3	0	0	0	0	523	
4	0	0	0	0	520	
5	0	0	0	0	517	
6	0	0	0	0	511	
7	0	0	0	0	505	
8	0	0	0	0	503	
9	0	0	0	0	499	
10	0	0	0	0	497	
11	0	0	0	0	494	
12	0	0	0	0	492	
13	0	0	0	0	495	
14	0	0	0	0	502	
15	0	0	0	0	507	
0	0	0	0	0	510	
1	0	0	0	0	515	
2	0	0	0	0	518	
3	0	0	0	0	521	
4	0	0	0	0	524	
5	0	0	0	0	528	
6	0	0	0	0	531	
7	0	0	0	0	525	
8	0	0	0	0	521	
9	0	0	0	0	517	
10	0	0	0	0	510	
11	0	0	0	0	507	
12	0	0	0	0	502	
13	0	0	0	0	500	
14	0	0	0	0	498	
15	0	0	0	0	493	
0	0	0	0	0	490	
1	0	0	0	0	495	
2	0	0	0	0	501	
3	0	0	0	0	505	
4	0	0	0	0	512	
5	0	0	0	0	517	
6	0	0	0	0	519	
7	0	0	0	0	523	
8	0	0	0	0	522	
9	0	0	0	0	527	
10	0	0	0	0	531	
11	0	0	0	0	528	
12	0	0	0	0	523	
13	0	0	0	0	517	
14	0	0	0	0	512	
15	0	0	0	0	508	
0	0	0	0	0	503	
1	0	0	0	0	500	
2	0	0	0	0	500	
3	0	0	0	0	492	
4	0	0	0	0	489	
5	0	0	0	0	496	
6	0	0	0	0	503	
7	0	0	0	0	507	
8	0	0	0	0	510	
9	0	0	0	0	512	
10	0	0	0	0	516	
11	0	0	0	0	519	
12	0	0	0	0	524	
13	0	0	0	0	529	
14	0	0	0	0	531	
15	0	0	0	0	528	
0	0	0	0	0	519	
1	0	0	0	0	515	
2	0	0	0	0	509	
3	0	0	0	0	505	
4	0	0	0	0	499	
5	0	0	0	0	498	
6	0	0	0	0	498	
7	0	0	0	0	494	
8	0	0	0	0	492	
9	0	0	0	0	498	
10	0	0	0	0	504	
11	0	0	0	0	507	
12	0	0	0	0	512	
13	0	0	0	0	515	
14	0	0	0	0	516	
15	0	0	0	0	518	
0	0	0	0	0	526	
1	0	0	0	0	532	
2	0	0	0	0	531	
3	0	0	0	0	528	
4	0	0	0	0	522	
5	0	0	0	0	515	
6	0	0	0	0	511	
7	0	0	0	0	510	
8	0	0	0	0	503	
9	0	0	0	0	502	
10	0	0	0	0	497	
11	0	0	0	0	493	
12	0	0	0	0	487	
13	0	0	0	0	494	
14	0	0	0	0	499	
15	0	0	0	0	508	
0	0	0	0	0	510	
1	0	0	0	0	515	
2	0	0	0	0	523	
3	0	0	0	0	522	
4	0	0	0	0	522	
5	0	0	0	0	528	
6	0	0	0	0	529	
7	0	0	0	0	529	
8	0	0	0	0	524	
9	0	0	0	0	518	
10	0	0	0	0	511	
11	0	0	0	0	502	
12	0	0	0	0	504	
13	0	0	0	0	499	
14	0	0	0	0	496	
15	0	0	0	0	495	
0	0	0	0	0	498	
1	0	0	0	0	502	
2	0	0	0	0	503	
3	0	0	0	0	502	
4	0	0	0	0	506	
5	0	0	0	0	515	
6	0	0	0	0	520	
7	0	0	0	0	519	
8	0	0	0	0	522	
9	0	0	0	0	527	
10	0	0	0	0	528	
11	0	0	0	0	526	
12	0	0	0	0	520	
13	0	0	0	0	519	
14	0	0	0	0	513	
15	0	0	0	0	506	
0	0	0	0	0	504	
1	0	0	0	0	501	
2	0	0	0	0	499	
3	0	0	0	0	494	
4	0	0	0	0	490	
5	0	0	0	0	490	
6	0	0	0	0	501	
7	0	0	0	0	507	
8	0	0	0	0	512	
9	0	0	0	0	518	
10	0	0	0	0	517	
11	0	0	0	0	520	
12	0	0	0	0	523	
13	0	0	0	0	527	
14	0	0	0	0	532	
15	0	0	0	0	525	
0	0	0	0	0	516	
1	0	0	0	0	518	
2	0	0	0	0	517	
3	0	0	0	0	508	
4	0	0	0	0	504	
5	0	0	0	0	496	
6	0	0	0	0	496	
7	0	0	0	0	491	
8	0	0	0	0	492	
9	0	0	0	0	493	
10	0	0	0	0	499	
11	0	0	0	0	504	
12	0	0	0	0	515	
13	0	0	0	0	519	
14	0	0	0	0	523	
15	0	0	0	0	524	
0	0	0	0	0	526	
1	0	0	0	0	527	
2	0	0	0	0	524	
3	0	0	0	0	520	
4	0	0	0	0	518	
5	0	0	0	0	517	
6	0	0	0	0	514	
7	0	0	0	0	507	
8	0	0	0	0	504	
9	0	0	0	0	499	
10	0	0	0	0	496	
11	0	0	0	0	491	
12	0	0	0	0	492	
13	0	0	0	0	494	
14	0	0	0	0	504	
15	0	0	0	0	508	
0	0	0	0	0	511	
1	0	0	0	0	514	
2	0	0	0	0	518	
3	0	0	0	0	518	
4	0	0	0	0	523	
5	0	0	0	0	535	
6	0	0	0	0	533	
7	0	0	0	0	524	
8	0	0	0	0	519	
9	0	0	0	0	513	
10	0	0	0	0	513	
11	0	0	0	0	507	
12	0	0	0	0	503	
13	0	0	0	0	501	
14	0	0	0	0	499	
15	0	0	0	0	494	
0	0	0	0	0	489	
1	0	0	0	0	494	
2	0	0	0	0	502	
3	0	0	0	0	507	
4	0	0	0	0	511	
5	0	0	0	0	515	
6	0	0	0	0	516	
7	0	0	0	0	523	
8	0	0	0	0	528	
9	0	0	0	0	530	
10	0	0	0	0	528	
11	0	0	0	0	524	
12	0	0	0	0	519	
13	0	0	0	0	513	
14	0	0	0	0	508	
15	0	0	0	0	506	
0	0	0	0	0	503	
1	0	0	0	0	499	
2	0	0	0	0	495	
3	0	0	0	0	492	
4	0	0	0	0	496	
5	0	0	0	0	501	
6	0	0	0	0	502	
7	0	0	0	0	507	
8	0	0	0	0	510	
9	0	0	0	0	517	
10	0	0	0	0	519	
11	0	0	0	0	524	
12	0	0	0	0	523	
13	0	0	0	0	530	
14	0	0	0	0	529	
15	0	0	0	0	520	
0	0	0	0	0	519	
1	0	0	0	0	514	
2	0	0	0	0	508	
3	0	0	0	0	507	
4	0	0	0	0	508	
5	0	0	0	0	502	
6	0	0	0	0	498	
7	0	0	0	0	495	
8	0	0	0	0	490	
9	0	0	0	0	494	
10	0	0	0	0	501	
11	0	0	0	0	508	
12	0	0	0	0	509	
13	0	0	0	0	511	
14	0	0	0	0	513	
15	0	0	0	0	520	
0	0	0	0	0	526	
1	0	0	0	0	534	
2	0	0	0	0	531	
3	0	0	0	0	527	
4	0	0	0	0	522	
5	0	0	0	0	519	
6	0	0	0	0	512	
7	0	0	0	0	508	
8	0	0	0	0	506	
9	0	0	0	0	494	
10	0	0	0	0	493	
11	0	0	0	0	492	
12	0	0	0	0	490	
13	0	0	0	0	494	
14	0	0	0	0	504	
15	0	0	0	0	506	
0	0	0	0	0	513	
1	0	0	0	0	520	
2	0	0	0	0	522	
3	0	0	0	0	523	
4	0	0	0	0	525	
5	0	0	0	0	530	
6	0	0	0	0	532	
7	0	0	0	0	518	
8	0	0	0	0	522	
9	0	0	0	0	516	
10	0	0	0	0	511	
11	0	0	0	0	503	
12	0	0	0	0	500	
13	0	0	0	0	497	
14	0	0	0	0	494	
15	0	0	0	0	492	
0	0	0	0	0	493	
1	0	0	0	0	497	
2	0	0	0	0	499	
3	0	0	0	0	508	
4	0	0	0	0	512	
5	0	0	0	0	516	
6	0	0	0	0	521	
7	0	0	0	0	520	
8	0	0	0	0	524	
9	0	0	0	0	529	
10	0	0	0	0	530	
11	0	0	0	0	523	
12	0	0	0	0	520	
13	0	0	0	0	518	
14	0	0	0	0	512	
15	0	0	0	0	508	
0	0	0	0	0	505	
1	0	0	0	0	497	
2	0	0	0	0	500	
3	0	0	0	0	494	
4	0	0	0	0	488	
5	0	0	0	0	493	
6	0	0	0	0	497	
7	0	0	0	0	507	
8	0	0	0	0	510	
9	0	0	0	0	517	
10	0	0	0	0	520	
11	0	0	0	0	525	
12	0	0	0	0	527	
13	0	0	0	0	530	
14	0	0	0	0	531	
15	0	0	0	0	527	
0	0	0	0	0	521	
1	0	0	0	0	516	
2	0	0	0	0	513	
3	0	0	0	0	505	
4	0	0	0	0	502	
5	0	0	0	0	496	
6	0	0	0	0	496	
7	0	0	0	0	497	
8	0	0	0	0	496	
9	0	0	0	0	497	
10	0	0	0	0	499	
11	0	0	0	0	502	
12	0	0	0	0	512	
13	0	0	0	0	516	
14	0	0	0	0	520	
15	0	0	0	0	521	
0	0	0	0	0	520	
1	0	0	0	0	529	
2	0	0	0	0	530	
3	0	0	0	0	523	
4	0	0	0	0	524	
5	0	0	0	0	518	
6	0	0	0	0	511	
7	0	0	0	0	507	
8	0	0	0	0	508	
9	0	0	0	0	503	
10	0	0	0	0	496	
11	0	0	0	0	489	
12	0	0	0	0	489	
13	0	0	0	0	496	
14	0	0	0	0	502	
15	0	0	0	0	507	
0	0	0	0	0	512	
1	0	0	0	0	517	
2	0	0	0	0	518	
3	0	0	0	0	519	
4	0	0	0	0	525	
5	0	0	0	0	532	
6	0	0	0	0	529	
7	0	0	0	0	523	
8	0	0	0	0	519	
9	0	0	0	0	513	
10	0	0	0	0	506	
11	0	0	0	0	513	
12	0	0	0	0	505	
13	0	0	0	0	502	
14	0	0	0	0	498	
15	0	0	0	0	489	
0	0	0	0	0	488	
1	0	0	0	0	494	
2	0	0	0	0	501	
3	0	0	0	0	505	
4	0	0	0	0	510	
5	0	0	0	0	510	
6	0	0	0	0	518	
7	0	0	0	0	526	
8	0	0	0	0	524	
9	0	0	0	0	527	
10	0	0	0	0	528	
11	0	0	0	0	527	
12	0	0	0	0	524	
13	0	0	0	0	513	
14	0	0	0	0	510	
15	0	0	0	0	507	
0	0	0	0	0	502	
1	0	0	0	0	498	
2	0	0	0	0	494	
3	0	0	0	0	492	
4	0	0	0	0	493	
5	0	0	0	0	495	
6	0	0	0	0	498	
7	0	0	0	0	507	
8	0	0	0	0	512	
9	0	0	0	0	517	
10	0	0	0	0	519	
11	0	0	0	0	521	
12	0	0	0	0	521	
13	0	0	0	0	524	
14	0	0	0	0	531	
15	0	0	0	0	530	
0	0	0	0	0	521	
1	0	0	0	0	518	
2	0	0	0	0	510	
3	0	0	0	0	504	
4	0	0	0	0	504	
5	0	0	0	0	504	
6	0	0	0	0	499	
7	0	0	0	0	492	
8	0	0	0	0	491	
9	0	0	0	0	496	
10	0	0	0	0	500	
11	0	0	0	0	504	
12	0	0	0	0	510	
13	0	0	0	0	513	
14	0	0	0	0	522	
15	0	0	0	0	525	
0	0	0	0	0	526	
1	0	0	0	0	529	
2	0	0	0	0	528	
3	0	0	0	0	525	
4	0	0	0	0	522	
5	0	0	0	0	515	
6	0	0	0	0	512	
7	0	0	0	0	508	
8	0	0	0	0	503	
9	0	0	0	0	503	
10	0	0	0	0	499	
11	0	0	0	0	489	
12	0	0	0	0	490	
13	0	0	0	0	488	
14	0	0	0	0	498	
15	0	0	0	0	512	
0	0	0	0	0	513	
1	0	0	0	0	514	
2	0	0	0	0	519	
3	0	0	0	0	521	
4	0	0	0	0	521	
5	0	0	0	0	532	
6	0	0	0	0	531	
7	0	0	0	0	524	
8	0	0	0	0	521	
9	0	0	0	0	519	
10	0	0	0	0	513	
11	0	0	0	0	508	
12	0	0	0	0	504	
13	0	0	0	0	500	
14	0	0	0	0	497	
15	0	0	0	0	490	
0	0	0	0	0	492	
1	0	0	0	0	494	
2	0	0	0	0	499	
3	0	0	0	0	505	
4	0	0	0	0	511	
5	0	0	0	0	514	
6	0	0	0	0	518	
7	0	0	0	0	519	
8	0	0	0	0	525	
9	0	0	0	0	534	
10	0	0	0	0	533	
11	0	0	0	0	523	
12	0	0	0	0	519	
13	0	0	0	0	518	
14	0	0	0	0	510	
15	0	0	0	0	505	
0	0	0	0	0	503	
1	0	0	0	0	499	
2	0	0	0	0	497	
3	0	0	0	0	492	
4	0	0	0	0	491	
5	0	0	0	0	493	
6	0	0	0	0	502	
7	0	0	0	0	505	
8	0	0	0	0	510	
9	0	0	0	0	514	
10	0	0	0	0	514	
11	0	0	0	0	523	
12	0	0	0	0	519	
13	0	0	0	0	525	
14	0	0	0	0	534	
15	0	0	0	0	528	
0	0	0	0	0	520	
1	0	0	0	0	516	
2	0	0	0	0	512	
3	0	0	0	0	509	
4	0	0	0	0	504	
5	0	0	0	0	502	
6	0	0	0	0	496	
7	0	0	0	0	492	
8	0	0	0	0	494	
9	0	0	0	0	496	
10	0	0	0	0	500	
11	0	0	0	0	505	
12	0	0	0	0	513	
13	0	0	0	0	517	
14	0	0	0	0	518	
15	0	0	0	0	521	
0	0	0	0	0	523	
1	0	0	0	0	530	
2	0	0	0	0	532	
3	0	0	0	0	524	
4	0	0	0	0	519	
5	0	0	0	0	516	
6	0	0	0	0	512	
7	0	0	0	0	505	
8	0	0	0	0	503	
9	0	0	0	0	500	
10	0	0	0	0	497	
11	0	0	0	0	491	
12	0	0	0	0	485	
13	0	0	0	0	496	
14	0	0	0	0	505	
15	0	0	0	0	509	
0	0	0	0	0	512	
1	0	0	0	0	517	
2	0	0	0	0	523	
3	0	0	0	0	524	
4	0	0	0	0	523	
5	0	0	0	0	529	
6	0	0	0	0	529	
7	0	0	0	0	526	
8	0	0	0	0	520	
9	0	0	0	0	518	
10	0	0	0	0	511	
11	0	0	0	0	507	
12	0	0	0	0	505	
13	0	0	0	0	499	
14	0	0	0	0	494	
15	0	0	0	0	490	
0	0	0	0	0	492	
1	0	0	0	0	497	
2	0	0	0	0	501	
3	0	0	0	0	504	
4	0	0	0	0	511	
5	0	0	0	0	514	
6	0	0	0	0	521	
7	0	0	0	0	522	
8	0	0	0	0	524	
9	0	0	0	0	529	
10	0	0	0	0	528	
11	0	0	0	0	520	
12	0	0	0	0	516	
13	0	0	0	0	527	
14	0	0	0	0	513	
15	0	0	0	0	503	
0	0	0	0	0	499	
1	0	0	0	0	497	
2	0	0	0	0	502	
3	0	0	0	0	496	
4	0	0	0	0	492	
5	0	0	0	0	494	
6	0	0	0	0	500	
7	0	0	0	0	506	
8	0	0	0	0	512	
9	0	0	0	0	513	
10	0	0	0	0	517	
11	0	0	0	0	524	
12	0	0	0	0	524	
13	0	0	0	0	528	
14	0	0	0	0	528	
15	0	0	0	0	524	
0	0	0	0	0	520	
1	0	0	0	0	516	
2	0	0	0	0	510	
3	0	0	0	0	508	
4	0	0	0	0	505	
5	0	0	0	0	503	
6	0	0	0	0	498	
7	0	0	0	0	492	
8	0	0	0	0	489	
9	0	0	0	0	494	
10	0	0	0	0	498	
11	0	0	0	0	510	
12	0	0	0	0	512	
13	0	0	0	0	513	
14	0	0	0	0	517	
15	0	0	0	0	525	
0	0	0	0	0	528	
1	0	0	0	0	530	
2	0	0	0	0	528	
3	0	0	0	0	517	
4	0	0	0	0	525	
5	0	0	0	0	518	
6	0	0	0	0	508	
7	0	0	0	0	506	
8	0	0	0	0	500	
9	0	0	0	0	501	
10	0	0	0	0	500	
11	0	0	0	0	490	
12	0	0	0	0	492	
13	0	0	0	0	497	
14	0	0	0	0	499	
15	0	0	0	0	505	
0	0	0	0	0	512	
1	0	0	0	0	518	
2	0	0	0	0	519	
3	0	0	0	0	522	
4	0	0	0	0	525	
5	0	0	0	0	526	
6	0	0	0	0	526	
7	0	0	0	0	526	
8	0	0	0	0	520	
9	0	0	0	0	518	
10	0	0	0	0	511	
11	0	0	0	0	505	
12	0	0	0	0	502	
13	0	0	0	0	499	
14	0	0	0	0	499	
15	0	0	0	0	495	
0	0	0	0	0	491	
1	0	0	0	0	496	
2	0	0	0	0	500	
3	0	0	0	0	506	
4	0	0	0	0	509	
5	0	0	0	0	512	
6	0	0	0	0	517	
7	0	0	0	0	522	
8	0	0	0	0	530	
9	0	0	0	0	530	
10	0	0	0	0	529	
11	0	0	0	0	521	
12	0	0	0	0	524	
13	0	0	0	0	518	
14	0	0	0	0	510	
15	0	0	0	0	505	
0	0	0	0	0	504	
1	0	0	0	0	498	
2	0	0	0	0	496	
3	0	0	0	0	495	
4	0	0	0	0	494	
5	0	0	0	0	497	
6	0	0	0	0	498	
7	0	0	0	0	509	
8	0	0	0	0	510	
9	0	0	0	0	515	
10	0	0	0	0	520	
11	0	0	0	0	518	
12	0	0	0	0	518	
13	0	0	0	0	536	
14	0	0	0	0	535	
15	0	0	0	0	524	
0	0	0	0	0	521	
1	0	0	0	0	513	
2	0	0	0	0	508	
3	0	0	0	0	504	
4	0	0	0	0	502	
5	0	0	0	0	501	
6	0	0	0	0	499	
7	0	0	0	0	494	
8	0	0	0	0	496	
9	0	0	0	0	498	
10	0	0	0	0	501	
11	0	0	0	0	509	
12	0	0	0	0	511	
13	0	0	0	0	513	
14	0	0	0	0	516	
15	0	0	0	0	514	
0	0	0	0	0	521	
1	0	0	0	0	526	
2	0	0	0	0	531	
3	0	0	0	0	527	
4	0	0	0	0	523	
5	0	0	0	0	519	
6	0	0	0	0	515	
7	0	0	0	0	508	
8	0	0	0	0	504	
9	0	0	0	0	495	
10	0	0	0	0	496	
11	0	0	0	0	495	
12	0	0	0	0	494	
13	0	0	0	0	499	
14	0	0	0	0	501	
15	0	0	0	0	503	
0	0	0	0	0	511	
1	0	0	0	0	515	
2	0	0	0	0	519	
3	0	0	0	0	519	
4	0	0	0	0	522	
5	0	0	0	0	528	
6	0	0	0	0	528	
7	0	0	0	0	524	
8	0	0	0	0	519	
9	0	0	0	0	520	
10	0	0	0	0	512	
11	0	0	0	0	506	
12	0	0	0	0	500	
13	0	0	0	0	498	
14	0	0	0	0	500	
15	0	0	0	0	494	
0	0	0	0	0	491	
1	0	0	0	0	496	
2	0	0	0	0	502	
3	0	0	0	0	504	
4	0	0	0	0	514	
5	0	0	0	0	517	
6	0	0	0	0	520	
7	0	0	0	0	518	
8	0	0	0	0	520	
9	0	0	0	0	523	
10	0	0	0	0	531	
11	0	0	0	0	530	
12	0	0	0	0	526	
13	0	0	0	0	517	
14	0	0	0	0	510	
15	0	0	0	0	505	
0	0	0	0	0	502	
1	0	0	0	0	495	
2	0	0	0	0	498	
3	0	0	0	0	496	
4	0	0	0	0	491	
5	0	0	0	0	497	
6	0	0	0	0	499	
7	0	0	0	0	508	
8	0	0	0	0	515	
9	0	0	0	0	517	
10	0	0	0	0	520	
11	0	0	0	0	520	
12	0	0	0	0	521	
13	0	0	0	0	527	
14	0	0	0	0	527	
15	0	0	0	0	525	
0	0	0	0	0	520	
1	0	0	0	0	515	
2	0	0	0	0	510	
3	0	0	0	0	507	
4	0	0	0	0	503	
5	0	0	0	0	500	
6	0	0	0	0	499	
7	0	0	0	0	496	
8	0	0	0	0	489	
9	0	0	0	0	496	
10	0	0	0	0	500	
11	0	0	0	0	504	
12	0	0	0	0	514	
13	0	0	0	0	519	
14	0	0	0	0	517	
15	0	0	0	0	517	
0	0	0	0	0	524	
1	0	0	0	0	526	
2	0	0	0	0	527	
3	0	0	0	0	524	
4	0	0	0	0	521	
5	0	0	0	0	515	
6	0	0	0	0	510	
7	0	0	0	0	507	
8	0	0	0	0	504	
9	0	0	0	0	502	
10	0	0	0	0	497	
11	0	0	0	0	491	
12	0	0	0	0	495	
13	0	0	0	0	498	
14	0	0	0	0	505	
15	0	0	0	0	510	
0	0	0	0	0	505	
1	0	0	0	0	510	
2	0	0	0	0	517	
3	0	0	0	0	520	
4	0	0	0	0	523	
5	0	0	0	0	528	
6	0	0	0	0	528	
7	0	0	0	0	523	
8	0	0	0	0	522	
9	0	0	0	0	516	
10	0	0	0	0	511	
11	0	0	0	0	509	
12	0	0	0	0	501	
13	0	0	0	0	502	
14	0	0	0	0	500	
15	0	0	0	0	494	
0	0	0	0	0	493	
1	0	0	0	0	498	
2	0	0	0	0	499	
3	0	0	0	0	503	
4	0	0	0	0	511	
5	0	0	0	0	515	
6	0	0	0	0	519	
7	0	0	0	0	520	
8	0	0	0	0	527	
9	0	0	0	0	531	
10	0	0	0	0	528	
11	0	0	0	0	523	
12	0	0	0	0	521	
13	0	0	0	0	515	
14	0	0	0	0	509	
15	0	0	0	0	507	
0	0	0	0	0	504	
1	0	0	0	0	499	
2	0	0	0	0	495	
3	0	0	0	0	491	
4	0	0	0	0	492	
5	0	0	0	0	499	
6	0	0	0	0	501	
7	0	0	0	0	504	
8	0	0	0	0	515	
9	0	0	0	0	516	
10	0	0	0	0	520	
11	0	0	0	0	519	
12	0	0	0	0	524	
13	0	0	0	0	528	
14	0	0	0	0	531	
15	0	0	0	0	525	
0	0	0	0	0	519	
1	0	0	0	0	516	
2	0	0	0	0	511	
3	0	0	0	0	508	
4	0	0	0	0	504	
5	0	0	0	0	501	
6	0	0	0	0	497	
7	0	0	0	0	491	
8	0	0	0	0	494	
9	0	0	0	0	496	
10	0	0	0	0	498	
11	0	0	0	0	505	
12	0	0	0	0	513	
13	0	0	0	0	517	
14	0	0	0	0	514	
15	0	0	0	0	522	
0	0	0	0	0	523	
1	0	0	0	0	529	
2	0	0	0	0	528	
3	0	0	0	0	531	
4	0	0	0	0	523	
5	0	0	0	0	513	
6	0	0	0	0	505	
7	0	0	0	0	509	
8	0	0	0	0	501	
9	0	0	0	0	498	
10	0	0	0	0	496	
11	0	0	0	0	492	
12	0	0	0	0	494	
13	0	0	0	0	494	
14	0	0	0	0	500	
15	0	0	0	0	508	
0	0	0	0	0	511	
1	0	0	0	0	514	
2	0	0	0	0	515	
3	0	0	0	0	520	
4	0	0	0	0	523	
5	0	0	0	0	528	
6	0	0	0	0	527	
7	0	0	0	0	524	
8	0	0	0	0	521	
9	0	0	0	0	517	
10	0	0	0	0	513	
11	0	0	0	0	512	
12	0	0	0	0	508	
13	0	0	0	0	503	
14	0	0	0	0	502	
15	0	0	0	0	493	
0	0	0	0	0	497	
1	0	0	0	0	497	
2	0	0	0	0	499	
3	0	0	0	0	500	
4	0	0	0	0	508	
5	0	0	0	0	512	
6	0	0	0	0	519	
7	0	0	0	0	520	
8	0	0	0	0	523	
9	0	0	0	0	531	
10	0	0	0	0	530	
11	0	0	0	0	526	
12	0	0	0	0	518	
13	0	0	0	0	515	
14	0	0	0	0	513	
15	0	0	0	0	505	
0	0	0	0	0	500	
1	0	0	0	0	499	
2	0	0	0	0	500	
3	0	0	0	0	492	
4	0	0	0	0	493	
5	0	0	0	0	497	
6	0	0	0	0	504	
7	0	0	0	0	507	
8	0	0	0	0	511	
9	0	0	0	0	515	
10	0	0	0	0	519	
11	0	0	0	0	520	
12	0	0	0	0	519	
13	0	0	0	0	529	
14	0	0	0	0	530	
15	0	0	0	0	525	
0	0	0	0	0	524	
1	0	0	0	0	514	
2	0	0	0	0	510	
3	0	0	0	0	506	
4	0	0	0	0	502	
5	0	0	0	0	498	
6	0	0	0	0	502	
7	0	0	0	0	496	
8	0	0	0	0	491	
9	0	0	0	0	494	
10	0	0	0	0	502	
11	0	0	0	0	507	
12	0	0	0	0	510	
13	0	0	0	0	518	
14	0	0	0	0	518	
15	0	0	0	0	521	
0	0	0	0	0	522	
1	0	0	0	0	525	
2	0	0	0	0	529	
3	0	0	0	0	522	
4	0	0	0	0	515	
5	0	0	0	0	516	
6	0	0	0	0	509	
7	0	0	0	0	508	
8	0	0	0	0	508	
9	0	0	0	0	504	
10	0	0	0	0	499	
11	0	0	0	0	493	
12	0	0	0	0	493	
13	0	0	0	0	494	
14	0	0	0	0	503	
15	0	0	0	0	509	
0	0	0	0	0	511	
1	0	0	0	0	516	
2	0	0	0	0	516	
3	0	0	0	0	519	
4	0	0	0	0	519	
5	0	0	0	0	524	
6	0	0	0	0	529	
7	0	0	0	0	526	
8	0	0	0	0	524	
9	0	0	0	0	517	
10	0	0	0	0	510	
11	0	0	0	0	505	
12	0	0	0	0	504	
13	0	0	0	0	504	
14	0	0	0	0	500	
15	0	0	0	0	495	
0	0	0	0	0	494	
1	0	0	0	0	497	
2	0	0	0	0	500	
3	0	0	0	0	506	
4	0	0	0	0	513	
5	0	0	0	0	516	
6	0	0	0	0	516	
7	0	0	0	0	521	
8	0	0	0	0	522	
9	0	0	0	0	527	
10	0	0	0	0	525	
11	0	0	0	0	524	
12	0	0	0	0	520	
13	0	0	0	0	516	
14	0	0	0	0	512	
15	0	0	0	0	506	
0	0	0	0	0	502	
1	0	0	0	0	502	
2	0	0	0	0	498	
3	0	0	0	0	494	
4	0	0	0	0	492	
5	0	0	0	0	497	
6	0	0	0	0	505	
7	0	0	0	0	507	
8	0	0	0	0	511	
9	0	0	0	0	515	
10	0	0	0	0	517	
11	0	0	0	0	521	
12	0	0	0	0	520	
13	0	0	0	0	527	
14	0	0	0	0	531	
15	0	0	0	0	527	
0	0	0	0	0	523	
1	0	0	0	0	516	
2	0	0	0	0	510	
3	0	0	0	0	506	
4	0	0	0	0	501	
5	0	0	0	0	499	
6	0	0	0	0	496	
7	0	0	0	0	495	
8	0	0	0	0	496	
9	0	0	0	0	497	
10	0	0	0	0	500	
11	0	0	0	0	504	
12	0	0	0	0	512	
13	0	0	0	0	516	
14	0	0	0	0	517	
15	0	0	0	0	519	
0	0	0	0	0	522	
1	0	0	0	0	528	
2	0	0	0	0	526	
3	0	0	0	0	523	
4	0	0	0	0	520	
5	0	0	0	0	520	
6	0	0	0	0	515	
7	0	0	0	0	505	
8	0	0	0	0	504	
9	0	0	0	0	501	
10	0	0	0	0	492	
11	0	0	0	0	498	
12	0	0	0	0	494	
13	0	0	0	0	496	
14	0	0	0	0	508	
15	0	0	0	0	506	
0	0	0	0	0	511	
1	0	0	0	0	515	
2	0	0	0	0	518	
3	0	0	0	0	520	
4	0	0	0	0	521	
5	0	0	0	0	525	
6	0	0	0	0	529	
7	0	0	0	0	525	
8	0	0	0	0	524	
9	0	0	0	0	517	
10	0	0	0	0	508	
11	0	0	0	0	503	
12	0	0	0	0	504	
13	0	0	0	0	499	
14	0	0	0	0	499	
15	0	0	0	0	489	
0	0	0	0	0	491	
1	0	0	0	0	504	
2	0	0	0	0	504	
3	0	0	0	0	507	
4	0	0	0	0	510	
5	0	0	0	0	516	
6	0	0	0	0	517	
7	0	0	0	0	519	
8	0	0	0	0	523	
9	0	0	0	0	527	
10	0	0	0	0	528	
11	0	0	0	0	525	
12	0	0	0	0	520	
13	0	0	0	0	513	
14	0	0	0	0	509	
15	0	0	0	0	511	
0	0	0	0	0	505	
1	0	0	0	0	502	
2	0	0	0	0	497	
3	0	0	0	0	493	
4	0	0	0	0	494	
5	0	0	0	0	497	
6	0	0	0	0	499	
7	0	0	0	0	506	
8	0	0	0	0	511	
9	0	0	0	0	514	
10	0	0	0	0	518	
11	0	0	0	0	523	
12	0	0	0	0	525	
13	0	0	0	0	526	
14	0	0	0	0	522	
15	0	0	0	0	521	
0	0	0	0	0	520	
1	0	0	0	0	516	
2	0	0	0	0	510	
3	0	0	0	0	504	
4	0	0	0	0	502	
5	0	0	0	0	502	
6	0	0	0	0	499	
7	0	0	0	0	496	
8	0	0	0	0	497	
9	0	0	0	0	497	
10	0	0	0	0	500	
11	0	0	0	0	504	
12	0	0	0	0	511	
13	0	0	0	0	518	
14	0	0	0	0	520	
15	0	0	0	0	524	
0	0	0	0	0	524	
1	0	0	0	0	526	
2	0	0	0	0	528	
3	0	0	0	0	528	
4	0	0	0	0	524	
5	0	0	0	0	516	
6	0	0	0	0	510	
7	0	0	0	0	503	
8	0	0	0	0	503	
9	0	0	0	0	501	
10	0	0	0	0	498	
11	0	0	0	0	495	
12	0	0	0	0	494	
13	0	0	0	0	495	
14	0	0	0	0	497	
15	0	0	0	0	504	
0	0	0	0	0	512	
1	0	0	0	0	515	
2	0	0	0	0	518	
3	0	0	0	0	519	
4	0	0	0	0	522	
5	0	0	0	0	531	
6	0	0	0	0	530	
7	0	0	0	0	528	
8	0	0	0	0	521	
9	0	0	0	0	515	
10	0	0	0	0	510	
11	0	0	0	0	507	
12	0	0	0	0	504	
13	0	0	0	0	504	
14	0	0	0	0	499	
15	0	0	0	0	491	
0	0	0	0	0	491	
1	0	0	0	0	496	
2	0	0	0	0	502	
3	0	0	0	0	506	
4	0	0	0	0	509	
5	0	0	0	0	515	
6	0	0	0	0	517	
7	0	0	0	0	521	
8	0	0	0	0	525	
9	0	0	0	0	526	
10	0	0	0	0	526	
11	0	0	0	0	527	
12	0	0	0	0	521	
13	0	0	0	0	513	
14	0	0	0	0	508	
15	0	0	0	0	507	
0	0	0	0	0	505	
1	0	0	0	0	498	
2	0	0	0	0	502	
3	0	0	0	0	494	
4	0	0	0	0	489	
5	0	0	0	0	494	
6	0	0	0	0	498	
7	0	0	0	0	505	
8	0	0	0	0	510	
9	0	0	0	0	513	
10	0	0	0	0	521	
11	0	0	0	0	528	
12	0	0	0	0	527	
13	0	0	0	0	530	
14	0	0	0	0	525	
15	0	0	0	0	523	
0	0	0	0	0	522	
1	0	0	0	0	515	
2	0	0	0	0	511	
3	0	0	0	0	507	
4	0	0	0	0	506	
5	0	0	0	0	500	
6	0	0	0	0	498	
7	0	0	0	0	493	
8	0	0	0	0	491	
9	0	0	0	0	492	
10	0	0	0	0	499	
11	0	0	0	0	506	
12	0	0	0	0	512	
13	0	0	0	0	516	
14	0	0	0	0	515	
15	0	0	0	0	519	
0	0	0	0	0	524	
1	0	0	0	0	529	
2	0	0	0	0	531	
3	0	0	0	0	527	
4	0	0	0	0	525	
5	0	0	0	0	516	
6	0	0	0	0	511	
7	0	0	0	0	506	
8	0	0	0	0	502	
9	0	0	0	0	499	
10	0	0	0	0	498	
11	0	0	0	0	497	
12	0	0	0	0	494	
13	0	0	0	0	492	
14	0	0	0	0	499	
15	0	0	0	0	504	
0	0	0	0	0	509	
1	0	0	0	0	515	
2	0	0	0	0	521	
3	0	0	0	0	522	
4	0	0	0	0	528	
5	0	0	0	0	529	
6	0	0	0	0	529	
7	0	0	0	0	524	
8	0	0	0	0	522	
9	0	0	0	0	515	
10	0	0	0	0	509	
11	0	0	0	0	503	
12	0	0	0	0	502	
13	0	0	0	0	499	
14	0	0	0	0	502	
15	0	0	0	0	496	
0	0	0	0	0	492	
1	0	0	0	0	494	
2	0	0	0	0	501	
3	0	0	0	0	507	
4	0	0	0	0	513	
5	0	0	0	0	513	
6	0	0	0	0	517	
7	0	0	0	0	522	
8	0	0	0	0	524	
9	0	0	0	0	529	
10	0	0	0	0	532	
11	0	0	0	0	525	
12	0	0	0	0	519	
13	0	0	0	0	515	
14	0	0	0	0	509	
15	0	0	0	0	510	
0	0	0	0	0	505	
1	0	0	0	0	502	
2	0	0	0	0	498	
3	0	0	0	0	495	
4	0	0	0	0	494	
5	0	0	0	0	495	
6	0	0	0	0	500	
7	0	0	0	0	504	
8	0	0	0	0	511	
9	0	0	0	0	517	
10	0	0	0	0	519	
11	0	0	0	0	522	
12	0	0	0	0	521	
13	0	0	0	0	523	
14	0	0	0	0	529	
15	0	0	0	0	527	
0	0	0	0	0	518	
1	0	0	0	0	515	
2	0	0	0	0	511	
3	0	0	0	0	505	
4	0	0	0	0	502	
5	0	0	0	0	504	
6	0	0	0	0	496	
7	0	0	0	0	492	
8	0	0	0	0	492	
9	0	0	0	0	497	
10	0	0	0	0	501	
11	0	0	0	0	506	
12	0	0	0	0	512	
13	0	0	0	0	515	
14	0	0	0	0	519	
15	0	0	0	0	520	
0	0	0	0	0	521	
1	0	0	0	0	529	
2	0	0	0	0	528	
3	0	0	0	0	523	
4	0	0	0	0	521	
5	0	0	0	0	517	
6	0	0	0	0	511	
7	0	0	0	0	509	
8	0	0	0	0	504	
9	0	0	0	0	498	
10	0	0	0	0	498	
11	0	0	0	0	500	
12	0	0	0	0	495	
13	0	0	0	0	496	
14	0	0	0	0	496	
15	0	0	0	0	502	
0	0	0	0	0	511	
1	0	0	0	0	515	
2	0	0	0	0	519	
3	0	0	0	0	521	
4	0	0	0	0	524	
5	0	0	0	0	527	
6	0	0	0	0	529	
7	0	0	0	0	523	
8	0	0	0	0	523	
9	0	0	0	0	515	
10	0	0	0	0	510	
11	0	0	0	0	505	
12	0	0	0	0	498	
13	0	0	0	0	502	
14	0	0	0	0	504	
15	0	0	0	0	493	
0	0	0	0	0	493	
1	0	0	0	0	495	
2	0	0	0	0	499	
3	0	0	0	0	505	
4	0	0	0	0	509	
5	0	0	0	0	517	
6	0	0	0	0	518	
7	0	0	0	0	521	
8	0	0	0	0	524	
9	0	0	0	0	528	
10	0	0	0	0	530	
11	0	0	0	0	525	
12	0	0	0	0	522	
13	0	0	0	0	517	
14	0	0	0	0	510	
15	0	0	0	0	505	
0	0	0	0	0	504	
1	0	0	0	0	499	
2	0	0	0	0	498	
3	0	0	0	0	491	
4	0	0	0	0	488	
5	0	0	0	0	496	
6	0	0	0	0	502	
7	0	0	0	0	507	
8	0	0	0	0	513	
9	0	0	0	0	515	
10	0	0	0	0	518	
11	0	0	0	0	521	
12	0	0	0	0	524	
13	0	0	0	0	527	
14	0	0	0	0	529	
15	0	0	0	0	524	
0	0	0	0	0	521	
1	0	0	0	0	517	
2	0	0	0	0	510	
3	0	0	0	0	507	
4	0	0	0	0	502	
5	0	0	0	0	502	
6	0	0	0	0	495	
7	0	0	0	0	492	
8	0	0	0	0	498	
9	0	0	0	0	498	
10	0	0	0	0	502	
11	0	0	0	0	505	
12	0	0	0	0	510	
13	0	0	0	0	514	
14	0	0	0	0	517	
15	0	0	0	0	523	
0	0	0	0	0	525	
1	0	0	0	0	527	
2	0	0	0	0	528	
3	0	0	0	0	524	
4	0	0	0	0	521	
5	0	0	0	0	515	
6	0	0	0	0	510	
7	0	0	0	0	506	
8	0	0	0	0	504	
9	0	0	0	0	499	
10	0	0	0	0	497	
11	0	0	0	0	493	
12	0	0	0	0	493	
13	0	0	0	0	498	
14	0	0	0	0	502	
15	0	0	0	0	505	
0	0	0	0	0	512	
1	0	0	0	0	516	
2	0	0	0	0	516	
3	0	0	0	0	519	
4	0	0	0	0	522	
5	0	0	0	0	527	
6	0	0	0	0	527	
7	0	0	0	0	526	
8	0	0	0	0	521	
9	0	0	0	0	514	
10	0	0	0	0	510	
11	0	0	0	0	505	
12	0	0	0	0	503	
13	0	0	0	0	502	
14	0	0	0	0	500	
15	0	0	0	0	495	
0	0	0	0	0	490	
1	0	0	0	0	491	
2	0	0	0	0	496	
3	0	0	0	0	507	
4	0	0	0	0	515	
5	0	0	0	0	523	
6	0	0	0	0	526	
7	0	0	0	0	525	
8	0	0	0	0	522	
9	0	0	0	0	526	
10	0	0	0	0	526	
11	0	0	0	0	522	
12	0	0	0	0	519	
13	0	0	0	0	515	
14	0	0	0	0	511	
15	0	0	0	0	506	
0	0	0	0	0	506	
1	0	0	0	0	499	
2	0	0	0	0	494	
3	0	0	0	0	492	
4	0	0	0	0	491	
5	0	0	0	0	495	
6	0	0	0	0	502	
7	0	0	0	0	509	
8	0	0	0	0	514	
9	0	0	0	0	520	
10	0	0	0	0	519	
11	0	0	0	0	522	
12	0	0	0	0	522	
13	0	0	0	0	529	
14	0	0	0	0	530	
15	0	0	0	0	527	
0	0	0	0	0	521	
1	0	0	0	0	514	
2	0	0	0	0	508	
3	0	0	0	0	504	
4	0	0	0	0	499	
5	0	0	0	0	497	
6	0	0	0	0	496	
7	0	0	0	0	496	
8	0	0	0	0	497	
9	0	0	0	0	496	
10	0	0	0	0	500	
11	0	0	0	0	505	
12	0	0	0	0	512	
13	0	0	0	0	516	
14	0	0	0	0	521	
15	0	0	0	0	522	
0	0	0	0	0	523	
1	0	0	0	0	527	
2	0	0	0	0	529	
3	0	0	0	0	525	
4	0	0	0	0	524	
5	0	0	0	0	515	
6	0	0	0	0	510	
7	0	0	0	0	505	
8	0	0	0	0	503	
9	0	0	0	0	500	
10	0	0	0	0	496	
11	0	0	0	0	496	
12	0	0	0	0	491	
13	0	0	0	0	494	
14	0	0	0	0	499	
15	0	0	0	0	505	
0	0	0	0	0	508	
1	0	0	0	0	517	
2	0	0	0	0	519	
3	0	0	0	0	524	
4	0	0	0	0	525	
5	0	0	0	0	527	
6	0	0	0	0	530	
7	0	0	0	0	526	
8	0	0	0	0	518	
9	0	0	0	0	513	
10	0	0	0	0	511	
11	0	0	0	0	511	
12	0	0	0	0	502	
13	0	0	0	0	500	
14	0	0	0	0	502	
15	0	0	0	0	495	
0	0	0	0	0	493	
1	0	0	0	0	495	
2	0	0	0	0	499	
3	0	0	0	0	507	
4	0	0	0	0	508	
5	0	0	0	0	516	
6	0	0	0	0	519	
7	0	0	0	0	522	
8	0	0	0	0	523	
9	0	0	0	0	522	
10	0	0	0	0	533	
11	0	0	0	0	526	
12	0	0	0	0	519	
13	0	0	0	0	512	
14	0	0	0	0	508	
15	0	0	0	0	504	
0	0	0	0	0	502	
1	0	0	0	0	500	
2	0	0	0	0	501	
3	0	0	0	0	497	
4	0	0	0	0	493	
5	0	0	0	0	496	
6	0	0	0	0	504	
7	0	0	0	0	504	
8	0	0	0	0	506	
9	0	0	0	0	517	
10	0	0	0	0	519	
11	0	0	0	0	518	
12	0	0	0	0	523	
13	0	0	0	0	530	
14	0	0	0	0	530	
15	0	0	0	0	526	
0	0	0	0	0	520	
1	0	0	0	0	513	
2	0	0	0	0	510	
3	0	0	0	0	511	
4	0	0	0	0	507	
5	0	0	0	0	500	
6	0	0	0	0	499	
7	0	0	0	0	495	
8	0	0	0	0	493	
9	0	0	0	0	497	
10	0	0	0	0	499	
11	0	0	0	0	503	
12	0	0	0	0	509	
13	0	0	0	0	513	
14	0	0	0	0	519	
15	0	0	0	0	523	
0	0	0	0	0	523	
1	0	0	0	0	532	
2	0	0	0	0	530	
3	0	0	0	0	523	
4	0	0	0	0	516	
5	0	0	0	0	513	
6	0	0	0	0	509	
7	0	0	0	0	508	
8	0	0	0	0	505	
9	0	0	0	0	500	
10	0	0	0	0	499	
11	0	0	0	0	498	
12	0	0	0	0	495	
13	0	0	0	0	497	
14	0	0	0	0	503	
15	0	0	0	0	507	
0	0	0	0	0	508	
1	0	0	0	0	513	
2	0	0	0	0	517	
3	0	0	0	0	521	
4	0	0	0	0	525	
5	0	0	0	0	527	
6	0	0	0	0	525	
7	0	0	0	0	524	
8	0	0	0	0	523	
9	0	0	0	0	516	
10	0	0	0	0	509	
11	0	0	0	0	506	
12	0	0	0	0	501	
13	0	0	0	0	501	
14	0	0	0	0	497	
15	0	0	0	0	496	
0	0	0	0	0	496	
1	0	0	0	0	498	
2	0	0	0	0	504	
3	0	0	0	0	505	
4	0	0	0	0	511	
5	0	0	0	0	513	
6	0	0	0	0	516	
7	0	0	0	0	517	
8	0	0	0	0	521	
9	0	0	0	0	530	
10	0	0	0	0	529	
11	0	0	0	0	527	
12	0	0	0	0	518	
13	0	0	0	0	514	
14	0	0	0	0	516	
15	0	0	0	0	510	
0	0	0	0	0	507	
1	0	0	0	0	500	
2	0	0	0	0	496	
3	0	0	0	0	494	
4	0	0	0	0	487	
5	0	0	0	0	494	
6	0	0	0	0	500	
7	0	0	0	0	507	
8	0	0	0	0	510	
9	0	0	0	0	515	
10	0	0	0	0	520	
11	0	0	0	0	520	
12	0	0	0	0	521	
13	0	0	0	0	525	
14	0	0	0	0	527	
15	0	0	0	0	523	
0	0	0	0	0	520	
1	0	0	0	0	515	
2	0	0	0	0	512	
3	0	0	0	0	508	
4	0	0	0	0	505	
5	0	0	0	0	500	
6	0	0	0	0	499	
7	0	0	0	0	492	
8	0	0	0	0	493	
9	0	0	0	0	494	
10	0	0	0	0	500	
11	0	0	0	0	507	
12	0	0	0	0	511	
13	0	0	0	0	513	
14	0	0	0	0	517	
15	0	0	0	0	522	
0	0	0	0	0	525	
1	0	0	0	0	529	
2	0	0	0	0	529	
3	0	0	0	0	527	
4	0	0	0	0	520	
5	0	0	0	0	518	
6	0	0	0	0	509	
7	0	0	0	0	509	
8	0	0	0	0	503	
9	0	0	0	0	501	
10	0	0	0	0	499	
11	0	0	0	0	492	
12	0	0	0	0	496	
13	0	0	0	0	499	
14	0	0	0	0	498	
15	0	0	0	0	505	
0	0	0	0	0	509	
1	0	0	0	0	513	
2	0	0	0	0	515	
3	0	0	0	0	517	
4	0	0	0	0	523	
5	0	0	0	0	528	
6	0	0	0	0	531	
7	0	0	0	0	530	
8	0	0	0	0	519	
9	0	0	0	0	515	
10	0	0	0	0	510	
11	0	0	0	0	508	
12	0	0	0	0	503	
13	0	0	0	0	500	
14	0	0	0	0	497	
15	0	0	0	0	492	
0	0	0	0	0	494	
1	0	0	0	0	498	
2	0	0	0	0	500	
3	0	0	0	0	503	
4	0	0	0	0	511	
5	0	0	0	0	518	
6	0	0	0	0	520	
7	0	0	0	0	521	
8	0	0	0	0	521	
9	0	0	0	0	528	
10	0	0	0	0	532	
11	0	0	0	0	527	
12	0	0	0	0	519	
13	0	0	0	0	515	
14	0	0	0	0	510	
15	0	0	0	0	507	
0	0	0	0	0	503	
1	0	0	0	0	497	
2	0	0	0	0	496	
3	0	0	0	0	496	
4	0	0	0	0	494	
5	0	0	0	0	496	
6	0	0	0	0	502	
7	0	0	0	0	506	
8	0	0	0	0	513	
9	0	0	0	0	516	
10	0	0	0	0	519	
11	0	0	0	0	520	
12	0	0	0	0	524	
13	0	0	0	0	528	
14	0	0	0	0	530	
15	0	0	0	0	520	
0	0	0	0	0	517	
1	0	0	0	0	521	
2	0	0	0	0	512	
3	0	0	0	0	509	
4	0	0	0	0	504	
5	0	0	0	0	501	
6	0	0	0	0	499	
7	0	0	0	0	487	
8	0	0	0	0	492	
9	0	0	0	0	499	
10	0	0	0	0	503	
11	0	0	0	0	508	
12	0	0	0	0	513	
13	0	0	0	0	518	
14	0	0	0	0	519	
15	0	0	0	0	523	
0	0	0	0	0	522	
1	0	0	0	0	526	
2	0	0	0	0	530	
3	0	0	0	0	523	
4	0	0	0	0	514	
5	0	0	0	0	511	
6	0	0	0	0	511	
7	0	0	0	0	507	
8	0	0	0	0	504	
9	0	0	0	0	500	
10	0	0	0	0	499	
11	0	0	0	0	495	
12	0	0	0	0	495	
13	0	0	0	0	496	
14	0	0	0	0	497	
15	0	0	0	0	501	
0	0	0	0	0	510	
1	0	0	0	0	517	
2	0	0	0	0	525	
3	0	0	0	0	530	
4	0	0	0	0	527	
5	0	0	0	0	525	
6	0	0	0	0	526	
7	0	0	0	0	522	
8	0	0	0	0	523	
9	0	0	0	0	515	
10	0	0	0	0	512	
11	0	0	0	0	508	
12	0	0	0	0	505	
13	0	0	0	0	499	
14	0	0	0	0	496	
15	0	0	0	0	493	
0	0	0	0	0	495	
1	0	0	0	0	497	
2	0	0	0	0	501	
3	0	0	0	0	505	
4	0	0	0	0	509	
5	0	0	0	0	517	
6	0	0	0	0	520	
7	0	0	0	0	524	
8	0	0	0	0	522	
9	0	0	0	0	526	
10	0	0	0	0	524	
11	0	0	0	0	522	
12	0	0	0	0	517	
13	0	0	0	0	514	
14	0	0	0	0	507	
15	0	0	0	0	504	
0	0	0	0	0	502	
1	0	0	0	0	503	
2	0	0	0	0	503	
3	0	0	0	0	498	
4	0	0	0	0	497	
5	0	0	0	0	500	
6	0	0	0	0	503	
7	0	0	0	0	507	
8	0	0	0	0	510	
9	0	0	0	0	513	
10	0	0	0	0	517	
11	0	0	0	0	516	
12	0	0	0	0	520	
13	0	0	0	0	524	
14	0	0	0	0	530	
15	0	0	0	0	529	
0	0	0	0	0	523	
1	0	0	0	0	515	
2	0	0	0	0	511	
3	0	0	0	0	507	
4	0	0	0	0	504	
5	0	0	0	0	501	
6	0	0	0	0	497	
7	0	0	0	0	497	
8	0	0	0	0	497	
9	0	0	0	0	498	
10	0	0	0	0	500	
11	0	0	0	0	505	
12	0	0	0	0	512	
13	0	0	0	0	513	
14	0	0	0	0	514	
15	0	0	0	0	521	
0	0	0	0	0	520	
1	0	0	0	0	524	
2	0	0	0	0	525	
3	0	0	0	0	523	
4	0	0	0	0	520	
5	0	0	0	0	518	
6	0	0	0	0	512	
7	0	0	0	0	507	
8	0	0	0	0	502	
9	0	0	0	0	500	
10	0	0	0	0	499	
11	0	0	0	0	494	
12	0	0	0	0	494	
13	0	0	0	0	499	
14	0	0	0	0	503	
15	0	0	0	0	508	
0	0	0	0	0	514	
1	0	0	0	0	515	
2	0	0	0	0	517	
3	0	0	0	0	519	
4	0	0	0	0	524	
5	0	0	0	0	527	
6	0	0	0	0	526	
7	0	0	0	0	523	
8	0	0	0	0	519	
9	0	0	0	0	521	
10	0	0	0	0	510	
11	0	0	0	0	505	
12	0	0	0	0	503	
13	0	0	0	0	500	
14	0	0	0	0	500	
15	0	0	0	0	495	
0	0	0	0	0	494	
1	0	0	0	0	496	
2	0	0	0	0	502	
3	0	0	0	0	504	
4	0	0	0	0	514	
5	0	0	0	0	518	
6	0	0	0	0	516	
7	0	0	0	0	520	
8	0	0	0	0	522	
9	0	0	0	0	524	
10	0	0	0	0	526	
11	0	0	0	0	525	
12	0	0	0	0	524	
13	0	0	0	0	516	
14	0	0	0	0	510	
15	0	0	0	0	507	
0	0	0	0	0	503	
1	0	0	0	0	499	
2	0	0	0	0	495	
3	0	0	0	0	491	
4	0	0	0	0	498	
5	0	0	0	0	506	
6	0	0	0	0	509	
7	0	0	0	0	507	
8	0	0	0	0	509	
9	0	0	0	0	514	
10	0	0	0	0	517	
11	0	0	0	0	521	
12	0	0	0	0	521	
13	0	0	0	0	526	
14	0	0	0	0	529	
15	0	0	0	0	524	
0	0	0	0	0	518	
1	0	0	0	0	515	
2	0	0	0	0	511	
3	0	0	0	0	510	
4	0	0	0	0	504	
5	0	0	0	0	500	
6	0	0	0	0	502	
7	0	0	0	0	499	
8	0	0	0	0	494	
9	0	0	0	0	495	
10	0	0	0	0	500	
11	0	0	0	0	505	
12	0	0	0	0	511	
13	0	0	0	0	515	
14	0	0	0	0	517	
15	0	0	0	0	520	
0	0	0	0	0	523	
1	0	0	0	0	525	
2	0	0	0	0	527	
3	0	0	0	0	523	
4	0	0	0	0	518	
5	0	0	0	0	514	
6	0	0	0	0	511	
7	0	0	0	0	507	
8	0	0	0	0	505	
9	0	0	0	0	504	
10	0	0	0	0	499	
11	0	0	0	0	496	
12	0	0	0	0	495	
13	0	0	0	0	494	
14	0	0	0	0	501	
15	0	0	0	0	508	
0	0	0	0	0	507	
1	0	0	0	0	512	
2	0	0	0	0	515	
3	0	0	0	0	521	
4	0	0	0	0	522	
5	0	0	0	0	525	
6	0	0	0	0	527	
7	0	0	0	0	528	
8	0	0	0	0	521	
9	0	0	0	0	513	
10	0	0	0	0	511	
11	0	0	0	0	507	
12	0	0	0	0	505	
13	0	0	0	0	504	
14	0	0	0	0	500	
15	0	0	0	0	495	
0	0	0	0	0	494	
1	0	0	0	0	494	
2	0	0	0	0	504	
3	0	0	0	0	508	
4	0	0	0	0	510	
5	0	0	0	0	513	
6	0	0	0	0	515	
7	0	0	0	0	519	
8	0	0	0	0	518	
9	0	0	0	0	526	
10	0	0	0	0	527	
11	0	0	0	0	525	
12	0	0	0	0	518	
13	0	0	0	0	516	
14	0	0	0	0	508	
15	0	0	0	0	508	
0	0	0	0	0	508	
1	0	0	0	0	506	
2	0	0	0	0	500	
3	0	0	0	0	496	
4	0	0	0	0	494	
5	0	0	0	0	495	
6	0	0	0	0	495	
7	0	0	0	0	497	
8	0	0	0	0	500	
9	0	0	0	0	512	
10	0	0	0	0	522	
11	0	0	0	0	529	
12	0	0	0	0	528	
13	0	0	0	0	528	
14	0	0	0	0	529	
15	0	0	0	0	525	
0	0	0	0	0	522	
1	0	0	0	0	518	
2	0	0	0	0	511	
3	0	0	0	0	508	
4	0	0	0	0	504	
5	0	0	0	0	503	
6	0	0	0	0	502	
7	0	0	0	0	495	
8	0	0	0	0	492	
9	0	0	0	0	497	
10	0	0	0	0	505	
11	0	0	0	0	510	
12	0	0	0	0	511	
13	0	0	0	0	515	
14	0	0	0	0	515	
15	0	0	0	0	517	
0	0	0	0	0	519	
1	0	0	0	0	526	
2	0	0	0	0	528	
3	0	0	0	0	525	
4	0	0	0	0	519	
5	0	0	0	0	515	
6	0	0	0	0	511	
7	0	0	0	0	506	
8	0	0	0	0	505	
9	0	0	0	0	503	
10	0	0	0	0	499	
11	0	0	0	0	495	
12	0	0	0	0	489	
13	0	0	0	0	499	
14	0	0	0	0	505	
15	0	0	0	0	511	
0	0	0	0	0	514	
1	0	0	0	0	516	
2	0	0	0	0	518	
3	0	0	0	0	519	
4	0	0	0	0	525	
5	0	0	0	0	527	
6	0	0	0	0	526	
7	0	0	0	0	524	
8	0	0	0	0	519	
9	0	0	0	0	511	
10	0	0	0	0	505	
11	0	0	0	0	506	
12	0	0	0	0	500	
13	0	0	0	0	502	
14	0	0	0	0	503	
15	0	0	0	0	498	
0	0	0	0	0	494	
1	0	0	0	0	500	
2	0	0	0	0	505	
3	0	0	0	0	507	
4	0	0	0	0	509	
5	0	0	0	0	514	
6	0	0	0	0	519	
7	0	0	0	0	519	
8	0	0	0	0	524	
9	0	0	0	0	527	
10	0	0	0	0	531	
11	0	0	0	0	522	
12	0	0	0	0	517	
13	0	0	0	0	515	
14	0	0	0	0	513	
15	0	0	0	0	504	
0	0	0	0	0	502	
1	0	0	0	0	507	
2	0	0	0	0	502	
3	0	0	0	0	494	
4	0	0	0	0	494	
5	0	0	0	0	497	
6	0	0	0	0	500	
7	0	0	0	0	505	
8	0	0	0	0	509	
9	0	0	0	0	514	
10	0	0	0	0	517	
11	0	0	0	0	521	
12	0	0	0	0	520	
13	0	0	0	0	526	
14	0	0	0	0	525	
15	0	0	0	0	522	
0	0	0	0	0	515	
1	0	0	0	0	506	
2	0	0	0	0	501	
3	0	0	0	0	501	
4	0	0	0	0	505	
5	0	0	0	0	517	
6	0	0	0	0	512	
7	0	0	0	0	504	
8	0	0	0	0	497	
9	0	0	0	0	496	
10	0	0	0	0	498	
11	0	0	0	0	504	
12	0	0	0	0	510	
13	0	0	0	0	516	
14	0	0	0	0	518	
15	0	0	0	0	519	
0	0	0	0	0	523	
1	0	0	0	0	524	
2	0	0	0	0	526	
3	0	0	0	0	521	
4	0	0	0	0	519	
5	0	0	0	0	514	
6	0	0	0	0	510	
7	0	0	0	0	508	
8	0	0	0	0	501	
9	0	0	0	0	497	
10	0	0	0	0	498	
11	0	0	0	0	496	
12	0	0	0	0	497	
13	0	0	0	0	502	
14	0	0	0	0	500	
15	0	0	0	0	506	
0	0	0	0	0	511	
1	0	0	0	0	513	
2	0	0	0	0	519	
3	0	0	0	0	519	
4	0	0	0	0	525	
5	0	0	0	0	526	
6	0	0	0	0	525	
7	0	0	0	0	524	
8	0	0	0	0	521	
9	0	0	0	0	514	
10	0	0	0	0	509	
11	0	0	0	0	506	
12	0	0	0	0	506	
13	0	0	0	0	501	
14	0	0	0	0	500	
15	0	0	0	0	497	
0	0	0	0	0	495	
1	0	0	0	0	499	
2	0	0	0	0	504	
3	0	0	0	0	508	
4	0	0	0	0	511	
5	0	0	0	0	514	
6	0	0	0	0	516	
7	0	0	0	0	519	
8	0	0	0	0	521	
9	0	0	0	0	529	
10	0	0	0	0	527	
11	0	0	0	0	523	
12	0	0	0	0	515	
13	0	0	0	0	510	
14	0	0	0	0	508	
15	0	0	0	0	506	
0	0	0	0	0	504	
1	0	0	0	0	502	
2	0	0	0	0	498	
3	0	0	0	0	496	
4	0	0	0	0	497	
5	0	0	0	0	504	
6	0	0	0	0	505	
7	0	0	0	0	511	
8	0	0	0	0	516	
9	0	0	0	0	513	
10	0	0	0	0	516	
11	0	0	0	0	517	
12	0	0	0	0	519	
13	0	0	0	0	524	
14	0	0	0	0	527	
15	0	0	0	0	530	
0	0	0	0	0	524	
1	0	0	0	0	515	
2	0	0	0	0	509	
3	0	0	0	0	504	
4	0	0	0	0	501	
5	0	0	0	0	500	
6	0	0	0	0	495	
7	0	0	0	0	491	
8	0	0	0	0	488	
9	0	0	0	0	495	
10	0	0	0	0	500	
11	0	0	0	0	521	
12	0	0	0	0	519	
13	0	0	0	0	519	
14	0	0	0	0	515	
15	0	0	0	0	518	
0	0	0	0	0	520	
1	0	0	0	0	521	
2	0	0	0	0	526	
3	0	0	0	0	522	
4	0	0	0	0	519	
5	0	0	0	0	515	
6	0	0	0	0	514	
7	0	0	0	0	510	
8	0	0	0	0	508	
9	0	0	0	0	502	
10	0	0	0	0	499	
11	0	0	0	0	493	
12	0	0	0	0	493	
13	0	0	0	0	499	
14	0	0	0	0	502	
15	0	0	0	0	503	
0	0	0	0	0	507	
1	0	0	0	0	511	
2	0	0	0	0	515	
3	0	0	0	0	520	
4	0	0	0	0	523	
5	0	0	0	0	528	
6	0	0	0	0	527	
7	0	0	0	0	528	
8	0	0	0	0	520	
9	0	0	0	0	519	
10	0	0	0	0	513	
11	0	0	0	0	506	
12	0	0	0	0	502	
13	0	0	0	0	502	
14	0	0	0	0	501	
15	0	0	0	0	494	
0	0	0	0	0	496	
1	0	0	0	0	497	
2	0	0	0	0	497	
3	0	0	0	0	510	
4	0	0	0	0	514	
5	0	0	0	0	515	
6	0	0	0	0	517	
7	0	0	0	0	521	
8	0	0	0	0	519	
9	0	0	0	0	526	
10	0	0	0	0	528	
11	0	0	0	0	525	
12	0	0	0	0	518	
13	0	0	0	0	514	
14	0	0	0	0	510	
15	0	0	0	0	508	
0	0	0	0	0	505	
1	0	0	0	0	500	
2	0	0	0	0	503	
3	0	0	0	0	498	
4	0	0	0	0	496	
5	0	0	0	0	494	
6	0	0	0	0	496	
7	0	0	0	0	502	
8	0	0	0	0	509	
9	0	0	0	0	515	
10	0	0	0	0	517	
11	0	0	0	0	518	
12	0	0	0	0	522	
13	0	0	0	0	525	
14	0	0	0	0	529	
15	0	0	0	0	525	
0	0	0	0	0	519	
1	0	0	0	0	515	
2	0	0	0	0	511	
3	0	0	0	0	509	
4	0	0	0	0	504	
5	0	0	0	0	504	
6	0	0	0	0	500	
7	0	0	0	0	494	
8	0	0	0	0	493	
9	0	0	0	0	501	
10	0	0	0	0	502	
11	0	0	0	0	504	
12	0	0	0	0	510	
13	0	0	0	0	514	
14	0	0	0	0	521	
15	0	0	0	0	524	
0	0	0	0	0	523	
1	0	0	0	0	524	
2	0	0	0	0	525	
3	0	0	0	0	526	
4	0	0	0	0	525	
5	0	0	0	0	515	
6	0	0	0	0	510	
7	0	0	0	0	505	
8	0	0	0	0	505	
9	0	0	0	0	506	
10	0	0	0	0	503	
11	0	0	0	0	499	
12	0	0	0	0	495	
13	0	0	0	0	495	
14	0	0	0	0	499	
15	0	0	0	0	499	
0	0	0	0	0	503	
1	0	0	0	0	515	
2	0	0	0	0	521	
3	0	0	0	0	526	
4	0	0	0	0	523	
5	0	0	0	0	523	
6	0	0	0	0	526	
7	0	0	0	0	526	
8	0	0	0	0	521	
9	0	0	0	0	511	
10	0	0	0	0	506	
11	0	0	0	0	497	
12	0	0	0	0	503	
13	0	0	0	0	510	
14	0	0	0	0	511	
15	0	0	0	0	502	
0	0	0	0	0	498	
1	0	0	0	0	498	
2	0	0	0	0	500	
3	0	0	0	0	506	
4	0	0	0	0	511	
5	0	0	0	0	512	
6	0	0	0	0	513	
7	0	0	0	0	515	
8	0	0	0	0	519	
9	0	0	0	0	525	
10	0	0	0	0	528	
11	0	0	0	0	522	
12	0	0	0	0	519	
13	0	0	0	0	517	
14	0	0	0	0	512	
15	0	0	0	0	510	
0	0	0	0	0	506	
1	0	0	0	0	504	
2	0	0	0	0	499	
3	0	0	0	0	494	
4	0	0	0	0	493	
5	0	0	0	0	499	
6	0	0	0	0	502	
7	0	0	0	0	503	
8	0	0	0	0	510	
9	0	0	0	0	520	
10	0	0	0	0	518	
11	0	0	0	0	521	
12	0	0	0	0	519	
13	0	0	0	0	526	
14	0	0	0	0	524	
15	0	0	0	0	520	
0	0	0	0	0	523	
1	0	0	0	0	519	
2	0	0	0	0	512	
3	0	0	0	0	505	
4	0	0	0	0	503	
5	0	0	0	0	499	
6	0	0	0	0	502	
7	0	0	0	0	498	
8	0	0	0	0	493	
9	0	0	0	0	500	
10	0	0	0	0	503	
11	0	0	0	0	507	
12	0	0	0	0	512	
13	0	0	0	0	516	
14	0	0	0	0	517	
15	0	0	0	0	521	
0	0	0	0	0	522	
1	0	0	0	0	525	
2	0	0	0	0	526	
3	0	0	0	0	523	
4	0	0	0	0	519	
5	0	0	0	0	513	
6	0	0	0	0	507	
7	0	0	0	0	501	
8	0	0	0	0	503	
9	0	0	0	0	505	
10	0	0	0	0	505	
11	0	0	0	0	500	
12	0	0	0	0	497	
13	0	0	0	0	498	
14	0	0	0	0	500	
15	0	0	0	0	508	
0	0	0	0	0	510	
1	0	0	0	0	513	
2	0	0	0	0	515	
3	0	0	0	0	517	
4	0	0	0	0	520	
5	0	0	0	0	523	
6	0	0	0	0	524	
7	0	0	0	0	522	
8	0	0	0	0	520	
9	0	0	0	0	518	
10	0	0	0	0	510	
11	0	0	0	0	503	
12	0	0	0	0	499	
13	0	0	0	0	499	
14	0	0	0	0	504	
15	0	0	0	0	505	
0	0	0	0	0	498	
1	0	0	0	0	496	
2	0	0	0	0	502	
3	0	0	0	0	510	
4	0	0	0	0	518	
5	0	0	0	0	520	
6	0	0	0	0	521	
7	0	0	0	0	519	
8	0	0	0	0	519	
9	0	0	0	0	524	
10	0	0	0	0	525	
11	0	0	0	0	524	
12	0	0	0	0	517	
13	0	0	0	0	516	
14	0	0	0	0	519	
15	0	0	0	0	524	
0	0	0	0	0	516	
1	0	0	0	0	499	
2	0	0	0	0	500	
3	0	0	0	0	496	
4	0	0	0	0	481	
5	0	0	0	0	480	
6	0	0	0	0	496	
7	0	0	0	0	498	
8	0	0	0	0	497	
9	0	0	0	0	504	
10	0	0	0	0	514	
11	0	0	0	0	517	
12	0	0	0	0	519	
13	0	0	0	0	535	
14	0	0	0	0	542	
15	0	0	0	0	540	
0	0	0	0	0	532	
1	0	0	0	0	526	
2	0	0	0	0	515	
3	0	0	0	0	508	
4	0	0	0	0	502	
5	0	0	0	0	506	
6	0	0	0	0	504	
7	0	0	0	0	489	
8	0	0	0	0	470	
9	0	0	0	0	471	
10	0	0	0	0	507	
11	0	0	0	0	532	
12	0	0	0	0	529	
13	0	0	0	0	519	
14	0	0	0	0	519	
15	0	0	0	0	507	
0	0	0	0	0	482	
1	0	0	0	0	472	
2	0	0	0	0	513	
3	0	0	0	0	539	
4	0	0	0	0	547	
5	0	0	0	0	536	
6	0	0	0	0	546	
7	0	0	0	0	531	
8	0	0	0	0	525	
9	0	0	0	0	511	
10	0	0	0	0	497	
11	0	0	0	0	490	
12	0	0	0	0	480	
13	0	0	0	0	470	
14	0	0	0	0	480	
15	0	0	0	0	498	
0	0	0	0	0	501	
1	0	0	0	0	518	
2	0	0	0	0	525	
3	0	0	0	0	523	
4	0	0	0	0	522	
5	0	0	0	0	529	
6	0	0	0	0	527	
7	0	0	0	0	520	
8	0	0	0	0	515	
9	0	0	0	0	519	
10	0	0	0	0	511	
11	0	0	0	0	504	
12	0	0	0	0	502	
13	0	0	0	0	503	
14	0	0	0	0	499	
15	0	0	0	0	500	
0	0	0	0	0	501	
1	0	0	0	0	501	
2	0	0	0	0	507	
3	0	0	0	0	510	
4	0	0	0	0	517	
5	0	0	0	0	522	
6	0	0	0	0	523	
7	0	0	0	0	513	
8	0	0	0	0	510	
9	0	0	0	0	520	
10	0	0	0	0	524	
11	0	0	0	0	527	
12	0	0	0	0	522	
13	0	0	0	0	513	
14	0	0	0	0	508	
15	0	0	0	0	509	
0	0	0	0	0	507	
1	0	0	0	0	503	
2	0	0	0	0	504	
3	0	0	0	0	497	
4	0	0	0	0	493	
5	0	0	0	0	495	
6	0	0	0	0	504	
7	0	0	0	0	508	
8	0	0	0	0	514	
9	0	0	0	0	520	
10	0	0	0	0	534	
11	0	0	0	0	536	
12	0	0	0	0	527	
13	0	0	0	0	527	
14	0	0	0	0	517	
15	0	0	0	0	505	
0	0	0	0	0	492	
1	0	0	0	0	473	
2	0	0	0	0	500	
3	0	0	0	0	521	
4	0	0	0	0	522	
5	0	0	0	0	513	
6	0	0	0	0	494	
7	0	0	0	0	497	
8	0	0	0	0	518	
9	0	0	0	0	518	
10	0	0	0	0	512	
11	0	0	0	0	516	
12	0	0	0	0	495	
13	0	0	0	0	487	
14	0	0	0	0	516	
15	0	0	0	0	540	
0	0	0	0	0	521	
1	0	0	0	0	512	
2	0	0	0	0	526	
3	0	0	0	0	532	
4	0	0	0	0	534	
5	0	0	0	0	531	
6	0	0	0	0	518	
7	0	0	0	0	504	
8	0	0	0	0	488	
9	0	0	0	0	433	
10	0	0	0	0	448	
11	0	0	0	0	470	
12	0	0	0	0	503	
13	0	0	0	0	523	
14	0	0	0	0	531	
15	0	0	0	0	542	
0	0	0	0	0	532	
1	0	0	0	0	524	
2	0	0	0	0	526	
3	0	0	0	0	530	
4	0	0	0	0	503	
5	0	0	0	0	522	
6	0	0	0	0	534	
7	0	0	0	0	515	
8	0	0	0	0	513	
9	0	0	0	0	503	
10	0	0	0	0	512	
11	0	0	0	0	523	
12	0	0	0	0	514	
13	0	0	0	0	505	
14	0	0	0	0	514	
15	0	0	0	0	518	
0	0	0	0	0	502	
1	0	0	0	0	483	
2	0	0	0	0	512	
3	0	0	0	0	519	
4	0	0	0	0	510	
5	0	0	0	0	495	
6	0	0	0	0	497	
7	0	0	0	0	493	
8	0	0	0	0	504	
9	0	0	0	0	491	
10	0	0	0	0	499	
11	0	0	0	0	513	
12	0	0	0	0	528	
13	0	0	0	0	553	
14	0	0	0	0	569	
15	0	0	0	0	529	
0	0	0	0	0	517	
1	0	0	0	0	505	
2	0	0	0	0	489	
3	0	0	0	0	484	
4	0	0	0	0	496	
5	0	0	0	0	487	
6	0	0	0	0	475	
7	0	0	0	0	476	
8	0	0	0	0	486	
9	0	0	0	0	516	
10	0	0	0	0	531	
11	0	0	0	0	530	
12	0	0	0	0	527	
13	0	0	0	0	536	
14	0	0	0	0	531	
15	0	0	0	0	541	
0	0	0	0	0	530	
1	0	0	0	0	489	
2	0	0	0	0	492	
3	0	0	0	0	495	
4	0	0	0	0	513	
5	0	0	0	0	523	
6	0	0	0	0	514	
7	0	0	0	0	516	
8	0	0	0	0	499	
9	0	0	0	0	506	
10	0	0	0	0	528	
11	0	0	0	0	520	
12	0	0	0	0	498	
13	0	0	0	0	514	
14	0	0	0	0	531	
15	0	0	0	0	525	
0	0	0	0	0	503	
1	0	0	0	0	492	
2	0	0	0	0	493	
3	0	0	0	0	502	
4	0	0	0	0	515	
5	0	0	0	0	519	
6	0	0	0	0	497	
7	0	0	0	0	510	
8	0	0	0	0	526	
9	0	0	0	0	496	
10	0	0	0	0	484	
11	0	0	0	0	515	
12	0	0	0	0	514	
13	0	0	0	0	508	
14	0	0	0	0	522	
15	0	0	0	0	543	
0	0	0	0	0	525	
1	0	0	0	0	492	
2	0	0	0	0	506	
3	0	0	0	0	504	
4	0	0	0	0	483	
5	0	0	0	0	534	
6	0	0	0	0	553	
7	0	0	0	0	507	
8	0	0	0	0	499	
9	0	0	0	0	550	
10	0	0	0	0	533	
11	0	0	0	0	504	
12	0	0	0	0	489	
13	0	0	0	0	464	
14	0	0	0	0	505	
15	0	0	0	0	518	
0	0	0	0	0	492	
1	0	0	0	0	485	
2	0	0	0	0	474	
3	0	0	0	0	473	
4	0	0	0	0	526	
5	0	0	0	0	538	
6	0	0	0	0	522	
7	0	0	0	0	507	
8	0	0	0	0	505	
9	0	0	0	0	536	
10	0	0	0	0	532	
11	0	0	0	0	515	
12	0	0	0	0	543	
13	0	0	0	0	554	
14	0	0	0	0	513	
15	0	0	0	0	480	
0	0	0	0	0	486	
1	0	0	0	0	492	
2	0	0	0	0	499	
3	0	0	0	0	479	
4	0	0	0	0	505	
5	0	0	0	0	526	
6	0	0	0	0	532	
7	0	0	0	0	504	
8	0	0	0	0	504	
9	0	0	0	0	507	
10	0	0	0	0	519	
11	0	0	0	0	523	
12	0	0	0	0	537	
13	0	0	0	0	536	
14	0	0	0	0	528	
15	0	0	0	0	513	
0	0	0	0	0	507	
1	0	0	0	0	509	
2	0	0	0	0	514	
3	0	0	0	0	499	
4	0	0	0	0	492	
5	0	0	0	0	481	
6	0	0	0	0	491	
7	0	0	0	0	489	
8	0	0	0	0	504	
9	0	0	0	0	514	
10	0	0	0	0	516	
11	0	0	0	0	521	
12	0	0	0	0	526	
13	0	0	0	0	537	
14	0	0	0	0	526	
15	0	0	0	0	497	
0	0	0	0	0	500	
1	0	0	0	0	511	
2	0	0	0	0	510	
3	0	0	0	0	511	
4	0	0	0	0	515	
5	0	0	0	0	531	
6	0	0	0	0	498	
7	0	0	0	0	486	
8	0	0	0	0	508	
9	0	0	0	0	513	
10	0	0	0	0	513	
11	0	0	0	0	494	
12	0	0	0	0	492	
13	0	0	0	0	499	
14	0	0	0	0	499	
15	0	0	0	0	511	
0	0	0	0	0	534	
1	0	0	0	0	551	
2	0	0	0	0	496	
3	0	0	0	0	516	
4	0	0	0	0	557	
5	0	0	0	0	524	
6	0	0	0	0	491	
7	0	0	0	0	473	
8	0	0	0	0	466	
9	0	0	0	0	524	
10	0	0	0	0	555	
11	0	0	0	0	521	
12	0	0	0	0	510	
13	0	0	0	0	511	
14	0	0	0	0	519	
15	0	0	0	0	504	
0	0	0	0	0	473	
1	0	0	0	0	481	
2	0	0	0	0	478	
3	0	0	0	0	441	
4	0	0	0	0	454	
5	0	0	0	0	560	
6	0	0	0	0	539	
7	0	0	0	0	588	
8	0	0	0	0	608	
9	0	0	0	0	535	
10	0	0	0	0	538	
11	0	0	0	0	544	
12	0	0	0	0	519	
13	0	0	0	0	492	
14	0	0	0	0	472	
15	0	0	0	0	455	
0	0	0	0	0	478	
1	0	0	0	0	519	
2	0	0	0	0	535	
3	0	0	0	0	513	
4	0	0	0	0	508	
5	0	0	0	0	517	
6	0	0	0	0	498	
7	0	0	0	0	525	
8	0	0	0	0	536	
